5.00000 316.000
5.02000 380.000
5.04000 409.000
5.06000 378.000
5.08000 364.000
5.10000 356.000
5.12000 349.000
5.14000 350.000
5.16000 341.000
5.18000 366.000
5.20000 388.000
5.22000 353.000
5.24000 386.000
5.26000 343.000
5.28000 371.000
5.30000 375.000
5.32000 346.000
5.34000 378.000
5.36000 343.000
5.38000 372.000
5.40000 355.000
5.42000 349.000
5.44000 346.000
5.46000 359.000
5.48000 359.000
5.50000 364.000
5.52000 352.000
5.54000 312.000
5.56000 310.000
5.58000 332.000
5.60000 338.000
5.62000 313.000
5.64000 346.000
5.66000 321.000
5.68000 348.000
5.70000 360.000
5.72000 343.000
5.74000 323.000
5.76000 347.000
5.78000 337.000
5.80000 354.000
5.82000 327.000
5.84000 320.000
5.86000 331.000
5.88000 343.000
5.90000 325.000
5.92000 313.000
5.94000 343.000
5.96000 294.000
5.98000 299.000
6.00000 326.000
6.02000 293.000
6.04000 314.000
6.06000 311.000
6.08000 265.000
6.10000 317.000
6.12000 305.000
6.14000 310.000
6.16000 284.000
6.18000 348.000
6.20000 299.000
6.22000 314.000
6.24000 297.000
6.26000 287.000
6.28000 288.000
6.30000 300.000
6.32000 306.000
6.34000 295.000
6.36000 298.000
6.38000 282.000
6.40000 315.000
6.42000 288.000
6.44000 264.000
6.46000 274.000
6.48000 267.000
6.50000 263.000
6.52000 308.000
6.54000 298.000
6.56000 261.000
6.58000 286.000
6.60000 280.000
6.62000 295.000
6.64000 304.000
6.66000 265.000
6.68000 276.000
6.70000 279.000
6.72000 266.000
6.74000 271.000
6.76000 281.000
6.78000 285.000
6.80000 325.000
6.82000 267.000
6.84000 270.000
6.86000 280.000
6.88000 255.000
6.90000 267.000
6.92000 290.000
6.94000 280.000
6.96000 271.000
6.98000 288.000
7.00000 273.000
7.02000 253.000
7.04000 275.000
7.06000 259.000
7.08000 261.000
7.10000 242.000
7.12000 267.000
7.14000 266.000
7.16000 265.000
7.18000 279.000
7.20000 255.000
7.22000 245.000
7.24000 278.000
7.26000 272.000
7.28000 258.000
7.30000 248.000
7.32000 243.000
7.34000 244.000
7.36000 261.000
7.38000 280.000
7.40000 263.000
7.42000 264.000
7.44000 259.000
7.46000 251.000
7.48000 260.000
7.50000 250.000
7.52000 247.000
7.54000 275.000
7.56000 266.000
7.58000 256.000
7.60000 254.000
7.62000 255.000
7.64000 221.000
7.66000 245.000
7.68000 235.000
7.70000 227.000
7.72000 243.000
7.74000 273.000
7.76000 210.000
7.78000 249.000
7.80000 249.000
7.82000 225.000
7.84000 256.000
7.86000 246.000
7.88000 241.000
7.90000 218.000
7.92000 245.000
7.94000 248.000
7.96000 223.000
7.98000 235.000
8.00000 242.000
8.02000 218.000
8.04000 229.000
8.06000 252.000
8.08000 219.000
8.10000 233.000
8.12000 223.000
8.14000 234.000
8.16000 245.000
8.18000 257.000
8.20000 243.000
8.22000 230.000
8.24000 219.000
8.26000 223.000
8.28000 200.000
8.30000 206.000
8.32000 209.000
8.34000 223.000
8.36000 217.000
8.38000 235.000
8.40000 214.000
8.42000 208.000
8.44000 227.000
8.46000 200.000
8.48000 233.000
8.50000 210.000
8.52000 214.000
8.54000 223.000
8.56000 210.000
8.58000 214.000
8.60000 206.000
8.62000 209.000
8.64000 209.000
8.66000 198.000
8.68000 216.000
8.70000 237.000
8.72000 229.000
8.74000 229.000
8.76000 195.000
8.78000 218.000
8.80000 213.000
8.82000 205.000
8.84000 208.000
8.86000 229.000
8.88000 213.000
8.90000 218.000
8.92000 208.000
8.94000 196.000
8.96000 231.000
8.98000 222.000
9.00000 204.000
9.02000 203.000
9.04000 219.000
9.06000 201.000
9.08000 224.000
9.10000 206.000
9.12000 214.000
9.14000 214.000
9.16000 210.000
9.18000 204.000
9.20000 189.000
9.22000 228.000
9.24000 231.000
9.26000 203.000
9.28000 180.000
9.30000 203.000
9.32000 218.000
9.34000 227.000
9.36000 219.000
9.38000 234.000
9.40000 225.000
9.42000 199.000
9.44000 211.000
9.46000 234.000
9.48000 243.000
9.50000 239.000
9.52000 236.000
9.54000 242.000
9.56000 244.000
9.58000 231.000
9.60000 284.000
9.62000 264.000
9.64000 279.000
9.66000 294.000
9.68000 284.000
9.70000 306.000
9.72000 322.000
9.74000 327.000
9.76000 353.000
9.78000 354.000
9.80000 372.000
9.82000 400.000
9.84000 402.000
9.86000 365.000
9.88000 337.000
9.90000 359.000
9.92000 333.000
9.94000 330.000
9.96000 312.000
9.98000 327.000
10.00000 299.000
10.02000 270.000
10.04000 273.000
10.06000 217.000
10.08000 200.000
10.10000 216.000
10.12000 215.000
10.14000 187.000
10.16000 213.000
10.18000 189.000
10.20000 150.000
10.22000 207.000
10.24000 153.000
10.26000 171.000
10.28000 195.000
10.30000 193.000
10.32000 176.000
10.34000 167.000
10.36000 186.000
10.38000 183.000
10.40000 149.000
10.42000 176.000
10.44000 153.000
10.46000 166.000
10.48000 191.000
10.50000 182.000
10.52000 174.000
10.54000 193.000
10.56000 182.000
10.58000 178.000
10.60000 171.000
10.62000 185.000
10.64000 185.000
10.66000 170.000
10.68000 188.000
10.70000 179.000
10.72000 192.000
10.74000 167.000
10.76000 179.000
10.78000 155.000
10.80000 168.000
10.82000 149.000
10.84000 153.000
10.86000 179.000
10.88000 151.000
10.90000 165.000
10.92000 151.000
10.94000 160.000
10.96000 156.000
10.98000 169.000
11.00000 167.000
11.02000 157.000
11.04000 154.000
11.06000 163.000
11.08000 184.000
11.10000 148.000
11.12000 168.000
11.14000 164.000
11.16000 165.000
11.18000 190.000
11.20000 199.000
11.22000 154.000
11.24000 161.000
11.26000 159.000
11.28000 174.000
11.30000 140.000
11.32000 198.000
11.34000 172.000
11.36000 173.000
11.38000 159.000
11.40000 163.000
11.42000 172.000
11.44000 186.000
11.46000 174.000
11.48000 158.000
11.50000 181.000
11.52000 191.000
11.54000 172.000
11.56000 160.000
11.58000 164.000
11.60000 152.000
11.62000 164.000
11.64000 153.000
11.66000 185.000
11.68000 162.000
11.70000 134.000
11.72000 156.000
11.74000 150.000
11.76000 159.000
11.78000 153.000
11.80000 155.000
11.82000 170.000
11.84000 157.000
11.86000 183.000
11.88000 154.000
11.90000 176.000
11.92000 167.000
11.94000 143.000
11.96000 172.000
11.98000 161.000
12.00000 158.000
12.02000 140.000
12.04000 159.000
12.06000 154.000
12.08000 198.000
12.10000 177.000
12.12000 182.000
12.14000 181.000
12.16000 193.000
12.18000 198.000
12.20000 180.000
12.22000 210.000
12.24000 206.000
12.26000 212.000
12.28000 231.000
12.30000 266.000
12.32000 245.000
12.34000 291.000
12.36000 270.000
12.38000 344.000
12.40000 305.000
12.42000 349.000
12.44000 372.000
12.46000 364.000
12.48000 452.000
12.50000 425.000
12.52000 490.000
12.54000 521.000
12.56000 616.000
12.58000 632.000
12.60000 690.000
12.62000 753.000
12.64000 758.000
12.66000 720.000
12.68000 754.000
12.70000 627.000
12.72000 629.000
12.74000 555.000
12.76000 463.000
12.78000 407.000
12.80000 400.000
12.82000 358.000
12.84000 292.000
12.86000 280.000
12.88000 241.000
12.90000 237.000
12.92000 274.000
12.94000 233.000
12.96000 265.000
12.98000 275.000
13.00000 247.000
13.02000 282.000
13.04000 278.000
13.06000 262.000
13.08000 288.000
13.10000 268.000
13.12000 307.000
13.14000 256.000
13.16000 216.000
13.18000 221.000
13.20000 216.000
13.22000 187.000
13.24000 181.000
13.26000 206.000
13.28000 203.000
13.30000 197.000
13.32000 197.000
13.34000 191.000
13.36000 191.000
13.38000 234.000
13.40000 218.000
13.42000 250.000
13.44000 266.000
13.46000 223.000
13.48000 284.000
13.50000 286.000
13.52000 295.000
13.54000 336.000
13.56000 393.000
13.58000 391.000
13.60000 431.000
13.62000 461.000
13.64000 465.000
13.66000 527.000
13.68000 607.000
13.70000 654.000
13.72000 695.000
13.74000 810.000
13.76000 938.000
13.78000 1019.000
13.80000 1174.000
13.82000 1296.000
13.84000 1380.000
13.86000 1560.000
13.88000 1814.000
13.90000 2115.000
13.92000 2233.000
13.94000 2224.000
13.96000 2263.000
13.98000 2142.000
14.00000 1828.000
14.02000 1537.000
14.04000 1224.000
14.06000 934.000
14.08000 699.000
14.10000 538.000
14.12000 412.000
14.14000 389.000
14.16000 299.000
14.18000 258.000
14.20000 208.000
14.22000 226.000
14.24000 218.000
14.26000 181.000
14.28000 167.000
14.30000 185.000
14.32000 169.000
14.34000 148.000
14.36000 131.000
14.38000 157.000
14.40000 137.000
14.42000 158.000
14.44000 115.000
14.46000 120.000
14.48000 122.000
14.50000 156.000
14.52000 133.000
14.54000 145.000
14.56000 145.000
14.58000 125.000
14.60000 145.000
14.62000 145.000
14.64000 123.000
14.66000 142.000
14.68000 137.000
14.70000 128.000
14.72000 136.000
14.74000 110.000
14.76000 123.000
14.78000 138.000
14.80000 109.000
14.82000 112.000
14.84000 133.000
14.86000 140.000
14.88000 93.000
14.90000 120.000
14.92000 110.000
14.94000 112.000
14.96000 115.000
14.98000 124.000
15.00000 121.000
15.02000 144.000
15.04000 119.000
15.06000 98.000
15.08000 110.000
15.10000 124.000
15.12000 121.000
15.14000 129.000
15.16000 126.000
15.18000 111.000
15.20000 131.000
15.22000 126.000
15.24000 123.000
15.26000 114.000
15.28000 121.000
15.30000 105.000
15.32000 106.000
15.34000 116.000
15.36000 107.000
15.38000 123.000
15.40000 112.000
15.42000 97.000
15.44000 120.000
15.46000 120.000
15.48000 128.000
15.50000 112.000
15.52000 100.000
15.54000 91.000
15.56000 90.000
15.58000 105.000
15.60000 106.000
15.62000 131.000
15.64000 127.000
15.66000 113.000
15.68000 119.000
15.70000 100.000
15.72000 124.000
15.74000 107.000
15.76000 110.000
15.78000 95.000
15.80000 99.000
15.82000 115.000
15.84000 104.000
15.86000 137.000
15.88000 109.000
15.90000 118.000
15.92000 98.000
15.94000 92.000
15.96000 122.000
15.98000 116.000
16.00000 120.000
16.02000 120.000
16.04000 117.000
16.06000 123.000
16.08000 108.000
16.10000 102.000
16.12000 112.000
16.14000 118.000
16.16000 121.000
16.18000 94.000
16.20000 112.000
16.22000 121.000
16.24000 119.000
16.26000 116.000
16.28000 75.000
16.30000 98.000
16.32000 116.000
16.34000 101.000
16.36000 95.000
16.38000 106.000
16.40000 108.000
16.42000 116.000
16.44000 122.000
16.46000 97.000
16.48000 103.000
16.50000 122.000
16.52000 115.000
16.54000 111.000
16.56000 124.000
16.58000 104.000
16.60000 111.000
16.62000 91.000
16.64000 109.000
16.66000 107.000
16.68000 91.000
16.70000 103.000
16.72000 113.000
16.74000 113.000
16.76000 105.000
16.78000 117.000
16.80000 124.000
16.82000 115.000
16.84000 115.000
16.86000 154.000
16.88000 121.000
16.90000 126.000
16.92000 128.000
16.94000 132.000
16.96000 141.000
16.98000 118.000
17.00000 141.000
17.02000 120.000
17.04000 130.000
17.06000 122.000
17.08000 105.000
17.10000 123.000
17.12000 92.000
17.14000 121.000
17.16000 112.000
17.18000 128.000
17.20000 121.000
17.22000 121.000
17.24000 115.000
17.26000 103.000
17.28000 106.000
17.30000 130.000
17.32000 101.000
17.34000 96.000
17.36000 125.000
17.38000 123.000
17.40000 127.000
17.42000 128.000
17.44000 118.000
17.46000 120.000
17.48000 119.000
17.50000 131.000
17.52000 108.000
17.54000 127.000
17.56000 131.000
17.58000 142.000
17.60000 133.000
17.62000 139.000
17.64000 154.000
17.66000 129.000
17.68000 161.000
17.70000 135.000
17.72000 152.000
17.74000 149.000
17.76000 126.000
17.78000 114.000
17.80000 129.000
17.82000 118.000
17.84000 99.000
17.86000 114.000
17.88000 102.000
17.90000 100.000
17.92000 102.000
17.94000 94.000
17.96000 85.000
17.98000 108.000
18.00000 101.000
18.02000 67.000
18.04000 99.000
18.06000 94.000
18.08000 96.000
18.10000 85.000
18.12000 96.000
18.14000 103.000
18.16000 100.000
18.18000 112.000
18.20000 102.000
18.22000 90.000
18.24000 86.000
18.26000 103.000
18.28000 98.000
18.30000 112.000
18.32000 112.000
18.34000 106.000
18.36000 109.000
18.38000 83.000
18.40000 98.000
18.42000 100.000
18.44000 97.000
18.46000 106.000
18.48000 107.000
18.50000 91.000
18.52000 106.000
18.54000 90.000
18.56000 86.000
18.58000 99.000
18.60000 107.000
18.62000 113.000
18.64000 105.000
18.66000 105.000
18.68000 110.000
18.70000 85.000
18.72000 95.000
18.74000 102.000
18.76000 87.000
18.78000 92.000
18.80000 88.000
18.82000 106.000
18.84000 103.000
18.86000 89.000
18.88000 105.000
18.90000 93.000
18.92000 84.000
18.94000 75.000
18.96000 89.000
18.98000 96.000
19.00000 105.000
19.02000 83.000
19.04000 92.000
19.06000 80.000
19.08000 117.000
19.10000 120.000
19.12000 94.000
19.14000 97.000
19.16000 105.000
19.18000 101.000
19.20000 100.000
19.22000 94.000
19.24000 98.000
19.26000 103.000
19.28000 94.000
19.30000 93.000
19.32000 110.000
19.34000 115.000
19.36000 97.000
19.38000 94.000
19.40000 100.000
19.42000 127.000
19.44000 134.000
19.46000 140.000
19.48000 128.000
19.50000 146.000
19.52000 158.000
19.54000 159.000
19.56000 185.000
19.58000 180.000
19.60000 226.000
19.62000 220.000
19.64000 268.000
19.66000 284.000
19.68000 313.000
19.70000 376.000
19.72000 383.000
19.74000 430.000
19.76000 407.000
19.78000 415.000
19.80000 423.000
19.82000 408.000
19.84000 345.000
19.86000 295.000
19.88000 266.000
19.90000 236.000
19.92000 183.000
19.94000 167.000
19.96000 148.000
19.98000 112.000
20.00000 131.000
20.02000 120.000
20.04000 132.000
20.06000 90.000
20.08000 115.000
20.10000 102.000
20.12000 77.000
20.14000 108.000
20.16000 93.000
20.18000 93.000
20.20000 114.000
20.22000 95.000
20.24000 94.000
20.26000 103.000
20.28000 102.000
20.30000 90.000
20.32000 94.000
20.34000 94.000
20.36000 103.000
20.38000 112.000
20.40000 86.000
20.42000 90.000
20.44000 86.000
20.46000 71.000
20.48000 104.000
20.50000 100.000
20.52000 80.000
20.54000 102.000
20.56000 87.000
20.58000 84.000
20.60000 95.000
20.62000 95.000
20.64000 99.000
20.66000 94.000
20.68000 102.000
20.70000 101.000
20.72000 84.000
20.74000 78.000
20.76000 109.000
20.78000 112.000
20.80000 106.000
20.82000 100.000
20.84000 102.000
20.86000 96.000
20.88000 109.000
20.90000 106.000
20.92000 127.000
20.94000 103.000
20.96000 122.000
20.98000 124.000
21.00000 111.000
21.02000 93.000
21.04000 104.000
21.06000 103.000
21.08000 104.000
21.10000 106.000
21.12000 115.000
21.14000 89.000
21.16000 97.000
21.18000 91.000
21.20000 85.000
21.22000 87.000
21.24000 99.000
21.26000 91.000
21.28000 91.000
21.30000 82.000
21.32000 92.000
21.34000 104.000
21.36000 96.000
21.38000 109.000
21.40000 98.000
21.42000 95.000
21.44000 104.000
21.46000 97.000
21.48000 95.000
21.50000 107.000
21.52000 113.000
21.54000 97.000
21.56000 113.000
21.58000 110.000
21.60000 119.000
21.62000 149.000
21.64000 167.000
21.66000 127.000
21.68000 140.000
21.70000 151.000
21.72000 167.000
21.74000 150.000
21.76000 156.000
21.78000 159.000
21.80000 126.000
21.82000 118.000
21.84000 125.000
21.86000 113.000
21.88000 99.000
21.90000 110.000
21.92000 88.000
21.94000 102.000
21.96000 100.000
21.98000 104.000
22.00000 97.000
22.02000 107.000
22.04000 123.000
22.06000 94.000
22.08000 103.000
22.10000 104.000
22.12000 80.000
22.14000 94.000
22.16000 108.000
22.18000 114.000
22.20000 94.000
22.22000 87.000
22.24000 90.000
22.26000 95.000
22.28000 93.000
22.30000 97.000
22.32000 91.000
22.34000 102.000
22.36000 91.000
22.38000 112.000
22.40000 106.000
22.42000 123.000
22.44000 107.000
22.46000 109.000
22.48000 134.000
22.50000 159.000
22.52000 158.000
22.54000 172.000
22.56000 177.000
22.58000 203.000
22.60000 206.000
22.62000 237.000
22.64000 250.000
22.66000 241.000
22.68000 231.000
22.70000 240.000
22.72000 219.000
22.74000 208.000
22.76000 176.000
22.78000 168.000
22.80000 170.000
22.82000 167.000
22.84000 150.000
22.86000 130.000
22.88000 139.000
22.90000 128.000
22.92000 117.000
22.94000 151.000
22.96000 123.000
22.98000 103.000
23.00000 134.000
23.02000 95.000
23.04000 103.000
23.06000 94.000
23.08000 85.000
23.10000 104.000
23.12000 95.000
23.14000 89.000
23.16000 86.000
23.18000 99.000
23.20000 80.000
23.22000 89.000
23.24000 96.000
23.26000 101.000
23.28000 84.000
23.30000 95.000
23.32000 101.000
23.34000 101.000
23.36000 87.000
23.38000 81.000
23.40000 92.000
23.42000 101.000
23.44000 73.000
23.46000 94.000
23.48000 97.000
23.50000 95.000
23.52000 94.000
23.54000 80.000
23.56000 102.000
23.58000 83.000
23.60000 113.000
23.62000 89.000
23.64000 86.000
23.66000 87.000
23.68000 91.000
23.70000 97.000
23.72000 87.000
23.74000 84.000
23.76000 84.000
23.78000 94.000
23.80000 98.000
23.82000 107.000
23.84000 89.000
23.86000 109.000
23.88000 115.000
23.90000 107.000
23.92000 127.000
23.94000 98.000
23.96000 116.000
23.98000 120.000
24.00000 132.000
24.02000 125.000
24.04000 167.000
24.06000 171.000
24.08000 169.000
24.10000 216.000
24.12000 209.000
24.14000 280.000
24.16000 333.000
24.18000 375.000
24.20000 384.000
24.22000 413.000
24.24000 510.000
24.26000 534.000
24.28000 537.000
24.30000 501.000
24.32000 476.000
24.34000 418.000
24.36000 397.000
24.38000 325.000
24.40000 251.000
24.42000 212.000
24.44000 192.000
24.46000 150.000
24.48000 155.000
24.50000 122.000
24.52000 123.000
24.54000 141.000
24.56000 106.000
24.58000 103.000
24.60000 99.000
24.62000 99.000
24.64000 100.000
24.66000 96.000
24.68000 87.000
24.70000 94.000
24.72000 75.000
24.74000 79.000
24.76000 91.000
24.78000 80.000
24.80000 89.000
24.82000 94.000
24.84000 91.000
24.86000 81.000
24.88000 88.000
24.90000 101.000
24.92000 100.000
24.94000 91.000
24.96000 88.000
24.98000 113.000
25.00000 107.000
25.02000 101.000
25.04000 116.000
25.06000 119.000
25.08000 99.000
25.10000 102.000
25.12000 110.000
25.14000 137.000
25.16000 124.000
25.18000 116.000
25.20000 151.000
25.22000 142.000
25.24000 136.000
25.26000 153.000
25.28000 164.000
25.30000 174.000
25.32000 165.000
25.34000 164.000
25.36000 173.000
25.38000 154.000
25.40000 159.000
25.42000 165.000
25.44000 172.000
25.46000 148.000
25.48000 166.000
25.50000 155.000
25.52000 161.000
25.54000 154.000
25.56000 149.000
25.58000 168.000
25.60000 191.000
25.62000 219.000
25.64000 203.000
25.66000 248.000
25.68000 248.000
25.70000 243.000
25.72000 215.000
25.74000 200.000
25.76000 169.000
25.78000 170.000
25.80000 150.000
25.82000 135.000
25.84000 139.000
25.86000 146.000
25.88000 104.000
25.90000 121.000
25.92000 124.000
25.94000 132.000
25.96000 114.000
25.98000 141.000
26.00000 128.000
26.02000 143.000
26.04000 142.000
26.06000 140.000
26.08000 128.000
26.10000 148.000
26.12000 183.000
26.14000 175.000
26.16000 168.000
26.18000 221.000
26.20000 222.000
26.22000 300.000
26.24000 305.000
26.26000 298.000
26.28000 330.000
26.30000 371.000
26.32000 379.000
26.34000 360.000
26.36000 339.000
26.38000 377.000
26.40000 377.000
26.42000 386.000
26.44000 363.000
26.46000 383.000
26.48000 387.000
26.50000 323.000
26.52000 314.000
26.54000 262.000
26.56000 238.000
26.58000 202.000
26.60000 214.000
26.62000 159.000
26.64000 159.000
26.66000 150.000
26.68000 132.000
26.70000 120.000
26.72000 131.000
26.74000 124.000
26.76000 95.000
26.78000 100.000
26.80000 117.000
26.82000 128.000
26.84000 114.000
26.86000 129.000
26.88000 125.000
26.90000 129.000
26.92000 131.000
26.94000 157.000
26.96000 181.000
26.98000 181.000
27.00000 185.000
27.02000 240.000
27.04000 248.000
27.06000 299.000
27.08000 333.000
27.10000 331.000
27.12000 332.000
27.14000 356.000
27.16000 320.000
27.18000 297.000
27.20000 277.000
27.22000 262.000
27.24000 229.000
27.26000 220.000
27.28000 190.000
27.30000 168.000
27.32000 171.000
27.34000 166.000
27.36000 187.000
27.38000 174.000
27.40000 213.000
27.42000 192.000
27.44000 238.000
27.46000 245.000
27.48000 215.000
27.50000 204.000
27.52000 178.000
27.54000 169.000
27.56000 180.000
27.58000 154.000
27.60000 153.000
27.62000 160.000
27.64000 158.000
27.66000 132.000
27.68000 156.000
27.70000 130.000
27.72000 127.000
27.74000 160.000
27.76000 147.000
27.78000 171.000
27.80000 208.000
27.82000 220.000
27.84000 285.000
27.86000 293.000
27.88000 335.000
27.90000 427.000
27.92000 496.000
27.94000 588.000
27.96000 669.000
27.98000 766.000
28.00000 893.000
28.02000 1097.000
28.04000 1329.000
28.06000 1509.000
28.08000 1635.000
28.10000 1673.000
28.12000 1582.000
28.14000 1471.000
28.16000 1294.000
28.18000 1186.000
28.20000 1016.000
28.22000 841.000
28.24000 668.000
28.26000 540.000
28.28000 463.000
28.30000 377.000
28.32000 278.000
28.34000 278.000
28.36000 243.000
28.38000 174.000
28.40000 158.000
28.42000 141.000
28.44000 152.000
28.46000 114.000
28.48000 120.000
28.50000 112.000
28.52000 109.000
28.54000 99.000
28.56000 111.000
28.58000 79.000
28.60000 92.000
28.62000 103.000
28.64000 92.000
28.66000 106.000
28.68000 99.000
28.70000 96.000
28.72000 88.000
28.74000 92.000
28.76000 79.000
28.78000 85.000
28.80000 90.000
28.82000 79.000
28.84000 103.000
28.86000 84.000
28.88000 83.000
28.90000 85.000
28.92000 106.000
28.94000 83.000
28.96000 81.000
28.98000 94.000
29.00000 80.000
29.02000 74.000
29.04000 98.000
29.06000 78.000
29.08000 85.000
29.10000 91.000
29.12000 81.000
29.14000 86.000
29.16000 72.000
29.18000 71.000
29.20000 62.000
29.22000 86.000
29.24000 70.000
29.26000 94.000
29.28000 72.000
29.30000 73.000
29.32000 73.000
29.34000 84.000
29.36000 84.000
29.38000 86.000
29.40000 97.000
29.42000 76.000
29.44000 93.000
29.46000 74.000
29.48000 86.000
29.50000 91.000
29.52000 86.000
29.54000 70.000
29.56000 75.000
29.58000 93.000
29.60000 90.000
29.62000 84.000
29.64000 94.000
29.66000 80.000
29.68000 77.000
29.70000 79.000
29.72000 81.000
29.74000 86.000
29.76000 79.000
29.78000 79.000
29.80000 97.000
29.82000 86.000
29.84000 74.000
29.86000 66.000
29.88000 78.000
29.90000 74.000
29.92000 73.000
29.94000 77.000
29.96000 79.000
29.98000 75.000
30.00000 82.000
30.02000 71.000
30.04000 74.000
30.06000 83.000
30.08000 82.000
30.10000 75.000
30.12000 70.000
30.14000 71.000
30.16000 85.000
30.18000 77.000
30.20000 69.000
30.22000 84.000
30.24000 71.000
30.26000 82.000
30.28000 75.000
30.30000 69.000
30.32000 86.000
30.34000 65.000
30.36000 87.000
30.38000 73.000
30.40000 73.000
30.42000 79.000
30.44000 97.000
30.46000 74.000
30.48000 83.000
30.50000 81.000
30.52000 83.000
30.54000 80.000
30.56000 70.000
30.58000 70.000
30.60000 72.000
30.62000 73.000
30.64000 86.000
30.66000 80.000
30.68000 87.000
30.70000 68.000
30.72000 87.000
30.74000 80.000
30.76000 75.000
30.78000 75.000
30.80000 98.000
30.82000 76.000
30.84000 75.000
30.86000 71.000
30.88000 64.000
30.90000 88.000
30.92000 80.000
30.94000 80.000
30.96000 81.000
30.98000 73.000
31.00000 98.000
31.02000 94.000
31.04000 104.000
31.06000 91.000
31.08000 107.000
31.10000 126.000
31.12000 124.000
31.14000 129.000
31.16000 171.000
31.18000 163.000
31.20000 212.000
31.22000 233.000
31.24000 289.000
31.26000 317.000
31.28000 375.000
31.30000 441.000
31.32000 542.000
31.34000 612.000
31.36000 646.000
31.38000 746.000
31.40000 834.000
31.42000 945.000
31.44000 1142.000
31.46000 1191.000
31.48000 1206.000
31.50000 1285.000
31.52000 1181.000
31.54000 1149.000
31.56000 1023.000
31.58000 885.000
31.60000 773.000
31.62000 604.000
31.64000 524.000
31.66000 395.000
31.68000 335.000
31.70000 263.000
31.72000 239.000
31.74000 184.000
31.76000 138.000
31.78000 136.000
31.80000 96.000
31.82000 128.000
31.84000 98.000
31.86000 81.000
31.88000 94.000
31.90000 97.000
31.92000 91.000
31.94000 74.000
31.96000 75.000
31.98000 76.000
32.00000 65.000
32.02000 71.000
32.04000 93.000
32.06000 71.000
32.08000 100.000
32.10000 78.000
32.12000 88.000
32.14000 98.000
32.16000 79.000
32.18000 80.000
32.20000 50.000
32.22000 59.000
32.24000 73.000
32.26000 67.000
32.28000 76.000
32.30000 70.000
32.32000 73.000
32.34000 68.000
32.36000 82.000
32.38000 60.000
32.40000 64.000
32.42000 72.000
32.44000 82.000
32.46000 83.000
32.48000 81.000
32.50000 87.000
32.52000 85.000
32.54000 91.000
32.56000 102.000
32.58000 92.000
32.60000 90.000
32.62000 85.000
32.64000 98.000
32.66000 113.000
32.68000 102.000
32.70000 89.000
32.72000 90.000
32.74000 76.000
32.76000 96.000
32.78000 73.000
32.80000 75.000
32.82000 67.000
32.84000 71.000
32.86000 58.000
32.88000 68.000
32.90000 63.000
32.92000 56.000
32.94000 62.000
32.96000 67.000
32.98000 56.000
33.00000 58.000
33.02000 63.000
33.04000 64.000
33.06000 57.000
33.08000 66.000
33.10000 57.000
33.12000 79.000
33.14000 69.000
33.16000 80.000
33.18000 83.000
33.20000 80.000
33.22000 88.000
33.24000 104.000
33.26000 98.000
33.28000 111.000
33.30000 99.000
33.32000 93.000
33.34000 101.000
33.36000 94.000
33.38000 92.000
33.40000 78.000
33.42000 82.000
33.44000 78.000
33.46000 61.000
33.48000 68.000
33.50000 74.000
33.52000 69.000
33.54000 47.000
33.56000 61.000
33.58000 58.000
33.60000 51.000
33.62000 58.000
33.64000 46.000
33.66000 55.000
33.68000 55.000
33.70000 54.000
33.72000 39.000
33.74000 51.000
33.76000 54.000
33.78000 53.000
33.80000 58.000
33.82000 51.000
33.84000 49.000
33.86000 47.000
33.88000 75.000
33.90000 56.000
33.92000 51.000
33.94000 58.000
33.96000 57.000
33.98000 63.000
34.00000 60.000
34.02000 53.000
34.04000 62.000
34.06000 47.000
34.08000 59.000
34.10000 61.000
34.12000 60.000
34.14000 54.000
34.16000 70.000
34.18000 69.000
34.20000 66.000
34.22000 62.000
34.24000 64.000
34.26000 67.000
34.28000 75.000
34.30000 65.000
34.32000 76.000
34.34000 65.000
34.36000 85.000
34.38000 66.000
34.40000 87.000
34.42000 86.000
34.44000 107.000
34.46000 111.000
34.48000 125.000
34.50000 131.000
34.52000 160.000
34.54000 166.000
34.56000 167.000
34.58000 167.000
34.60000 213.000
34.62000 180.000
34.64000 176.000
34.66000 157.000
34.68000 162.000
34.70000 123.000
34.72000 122.000
34.74000 114.000
34.76000 124.000
34.78000 111.000
34.80000 93.000
34.82000 93.000
34.84000 71.000
34.86000 72.000
34.88000 47.000
34.90000 63.000
34.92000 57.000
34.94000 49.000
34.96000 66.000
34.98000 66.000
35.00000 59.000
35.02000 64.000
35.04000 62.000
35.06000 57.000
35.08000 64.000
35.10000 61.000
35.12000 59.000
35.14000 61.000
35.16000 54.000
35.18000 61.000
35.20000 53.000
35.22000 77.000
35.24000 72.000
35.26000 59.000
35.28000 55.000
35.30000 61.000
35.32000 63.000
35.34000 51.000
35.36000 59.000
35.38000 58.000
35.40000 65.000
35.42000 49.000
35.44000 55.000
35.46000 43.000
35.48000 46.000
35.50000 50.000
35.52000 48.000
35.54000 57.000
35.56000 63.000
35.58000 52.000
35.60000 52.000
35.62000 46.000
35.64000 65.000
35.66000 57.000
35.68000 61.000
35.70000 59.000
35.72000 76.000
35.74000 72.000
35.76000 70.000
35.78000 57.000
35.80000 73.000
35.82000 86.000
35.84000 56.000
35.86000 65.000
35.88000 67.000
35.90000 63.000
35.92000 67.000
35.94000 66.000
35.96000 71.000
35.98000 86.000
36.00000 82.000
36.02000 96.000
36.04000 68.000
36.06000 80.000
36.08000 84.000
36.10000 99.000
36.12000 86.000
36.14000 69.000
36.16000 68.000
36.18000 83.000
36.20000 69.000
36.22000 76.000
36.24000 58.000
36.26000 53.000
36.28000 74.000
36.30000 52.000
36.32000 56.000
36.34000 57.000
36.36000 63.000
36.38000 47.000
36.40000 50.000
36.42000 53.000
36.44000 55.000
36.46000 59.000
36.48000 63.000
36.50000 48.000
36.52000 70.000
36.54000 48.000
36.56000 70.000
36.58000 56.000
36.60000 78.000
36.62000 88.000
36.64000 78.000
36.66000 73.000
36.68000 62.000
36.70000 68.000
36.72000 72.000
36.74000 62.000
36.76000 68.000
36.78000 64.000
36.80000 57.000
36.82000 50.000
36.84000 50.000
36.86000 55.000
36.88000 56.000
36.90000 45.000
36.92000 65.000
36.94000 48.000
36.96000 50.000
36.98000 55.000
37.00000 40.000
37.02000 60.000
37.04000 54.000
37.06000 47.000
37.08000 59.000
37.10000 53.000
37.12000 53.000
37.14000 52.000
37.16000 50.000
37.18000 40.000
37.20000 51.000
37.22000 53.000
37.24000 66.000
37.26000 70.000
37.28000 58.000
37.30000 54.000
37.32000 59.000
37.34000 59.000
37.36000 66.000
37.38000 69.000
37.40000 76.000
37.42000 90.000
37.44000 104.000
37.46000 115.000
37.48000 99.000
37.50000 110.000
37.52000 130.000
37.54000 129.000
37.56000 157.000
37.58000 126.000
37.60000 174.000
37.62000 129.000
37.64000 146.000
37.66000 158.000
37.68000 145.000
37.70000 126.000
37.72000 178.000
37.74000 140.000
37.76000 143.000
37.78000 156.000
37.80000 133.000
37.82000 124.000
37.84000 121.000
37.86000 100.000
37.88000 73.000
37.90000 83.000
37.92000 67.000
37.94000 69.000
37.96000 64.000
37.98000 59.000
38.00000 55.000
38.02000 62.000
38.04000 59.000
38.06000 63.000
38.08000 50.000
38.10000 51.000
38.12000 53.000
38.14000 48.000
38.16000 62.000
38.18000 53.000
38.20000 55.000
38.22000 56.000
38.24000 49.000
38.26000 54.000
38.28000 62.000
38.30000 55.000
38.32000 64.000
38.34000 51.000
38.36000 54.000
38.38000 60.000
38.40000 59.000
38.42000 66.000
38.44000 68.000
38.46000 75.000
38.48000 59.000
38.50000 60.000
38.52000 60.000
38.54000 78.000
38.56000 86.000
38.58000 75.000
38.60000 81.000
38.62000 56.000
38.64000 61.000
38.66000 73.000
38.68000 50.000
38.70000 68.000
38.72000 58.000
38.74000 48.000
38.76000 59.000
38.78000 61.000
38.80000 57.000
38.82000 49.000
38.84000 54.000
38.86000 54.000
38.88000 54.000
38.90000 63.000
38.92000 50.000
38.94000 64.000
38.96000 58.000
38.98000 45.000
39.00000 46.000
39.02000 60.000
39.04000 56.000
39.06000 49.000
39.08000 49.000
39.10000 61.000
39.12000 64.000
39.14000 61.000
39.16000 75.000
39.18000 67.000
39.20000 59.000
39.22000 59.000
39.24000 59.000
39.26000 65.000
39.28000 76.000
39.30000 80.000
39.32000 72.000
39.34000 74.000
39.36000 104.000
39.38000 116.000
39.40000 107.000
39.42000 98.000
39.44000 122.000
39.46000 110.000
39.48000 103.000
39.50000 114.000
39.52000 139.000
39.54000 139.000
39.56000 94.000
39.58000 116.000
39.60000 104.000
39.62000 99.000
39.64000 103.000
39.66000 103.000
39.68000 97.000
39.70000 77.000
39.72000 80.000
39.74000 88.000
39.76000 89.000
39.78000 85.000
39.80000 88.000
39.82000 82.000
39.84000 97.000
39.86000 105.000
39.88000 114.000
39.90000 121.000
39.92000 153.000
39.94000 168.000
39.96000 196.000
39.98000 208.000
40.00000 241.000
40.02000 335.000
40.04000 352.000
40.06000 418.000
40.08000 504.000
40.10000 530.000
40.12000 582.000
40.14000 638.000
40.16000 649.000
40.18000 611.000
40.20000 582.000
40.22000 575.000
40.24000 559.000
40.26000 489.000
40.28000 405.000
40.30000 351.000
40.32000 330.000
40.34000 229.000
40.36000 218.000
40.38000 178.000
40.40000 169.000
40.42000 134.000
40.44000 147.000
40.46000 132.000
40.48000 117.000
40.50000 116.000
40.52000 127.000
40.54000 130.000
40.56000 104.000
40.58000 125.000
40.60000 93.000
40.62000 101.000
40.64000 96.000
40.66000 86.000
40.68000 92.000
40.70000 72.000
40.72000 106.000
40.74000 87.000
40.76000 84.000
40.78000 65.000
40.80000 59.000
40.82000 69.000
40.84000 71.000
40.86000 76.000
40.88000 60.000
40.90000 63.000
40.92000 76.000
40.94000 80.000
40.96000 81.000
40.98000 75.000
41.00000 81.000
41.02000 94.000
41.04000 104.000
41.06000 119.000
41.08000 125.000
41.10000 120.000
41.12000 118.000
41.14000 119.000
41.16000 110.000
41.18000 125.000
41.20000 127.000
41.22000 128.000
41.24000 122.000
41.26000 104.000
41.28000 100.000
41.30000 103.000
41.32000 87.000
41.34000 83.000
41.36000 88.000
41.38000 65.000
41.40000 74.000
41.42000 72.000
41.44000 83.000
41.46000 81.000
41.48000 88.000
41.50000 64.000
41.52000 66.000
41.54000 76.000
41.56000 75.000
41.58000 78.000
41.60000 76.000
41.62000 71.000
41.64000 71.000
41.66000 76.000
41.68000 69.000
41.70000 68.000
41.72000 70.000
41.74000 65.000
41.76000 66.000
41.78000 59.000
41.80000 72.000
41.82000 68.000
41.84000 65.000
41.86000 75.000
41.88000 39.000
41.90000 52.000
41.92000 64.000
41.94000 61.000
41.96000 56.000
41.98000 58.000
42.00000 55.000
42.02000 67.000
42.04000 57.000
42.06000 64.000
42.08000 68.000
42.10000 76.000
42.12000 72.000
42.14000 77.000
42.16000 93.000
42.18000 93.000
42.20000 82.000
42.22000 94.000
42.24000 81.000
42.26000 92.000
42.28000 74.000
42.30000 86.000
42.32000 56.000
42.34000 81.000
42.36000 64.000
42.38000 68.000
42.40000 66.000
42.42000 81.000
42.44000 87.000
42.46000 100.000
42.48000 104.000
42.50000 113.000
42.52000 137.000
42.54000 139.000
42.56000 205.000
42.58000 210.000
42.60000 265.000
42.62000 322.000
42.64000 335.000
42.66000 375.000
42.68000 396.000
42.70000 441.000
42.72000 386.000
42.74000 433.000
42.76000 404.000
42.78000 337.000
42.80000 324.000
42.82000 349.000
42.84000 252.000
42.86000 254.000
42.88000 190.000
42.90000 167.000
42.92000 162.000
42.94000 141.000
42.96000 104.000
42.98000 112.000
43.00000 92.000
43.02000 77.000
43.04000 69.000
43.06000 61.000
43.08000 76.000
43.10000 66.000
43.12000 63.000
43.14000 59.000
43.16000 63.000
43.18000 37.000
43.20000 50.000
43.22000 41.000
43.24000 40.000
43.26000 50.000
43.28000 61.000
43.30000 61.000
43.32000 59.000
43.34000 47.000
43.36000 52.000
43.38000 52.000
43.40000 55.000
43.42000 33.000
43.44000 52.000
43.46000 37.000
43.48000 52.000
43.50000 45.000
43.52000 34.000
43.54000 67.000
43.56000 53.000
43.58000 53.000
43.60000 52.000
43.62000 54.000
43.64000 49.000
43.66000 39.000
43.68000 44.000
43.70000 42.000
43.72000 47.000
43.74000 51.000
43.76000 50.000
43.78000 58.000
43.80000 48.000
43.82000 55.000
43.84000 67.000
43.86000 63.000
43.88000 51.000
43.90000 44.000
43.92000 35.000
43.94000 46.000
43.96000 51.000
43.98000 50.000
44.00000 52.000
44.02000 56.000
44.04000 77.000
44.06000 78.000
44.08000 57.000
44.10000 73.000
44.12000 62.000
44.14000 72.000
44.16000 86.000
44.18000 72.000
44.20000 49.000
44.22000 65.000
44.24000 58.000
44.26000 65.000
44.28000 61.000
44.30000 73.000
44.32000 76.000
44.34000 68.000
44.36000 77.000
44.38000 81.000
44.40000 87.000
44.42000 77.000
44.44000 90.000
44.46000 61.000
44.48000 77.000
44.50000 85.000
44.52000 74.000
44.54000 67.000
44.56000 73.000
44.58000 61.000
44.60000 52.000
44.62000 52.000
44.64000 72.000
44.66000 53.000
44.68000 51.000
44.70000 55.000
44.72000 57.000
44.74000 45.000
44.76000 40.000
44.78000 51.000
44.80000 57.000
44.82000 56.000
44.84000 47.000
44.86000 33.000
44.88000 42.000
44.90000 36.000
44.92000 40.000
44.94000 52.000
44.96000 47.000
44.98000 44.000
45.00000 53.000
45.02000 50.000
45.04000 49.000
45.06000 54.000
45.08000 51.000
45.10000 66.000
45.12000 51.000
45.14000 52.000
45.16000 69.000
45.18000 45.000
45.20000 56.000
45.22000 48.000
45.24000 45.000
45.26000 49.000
45.28000 45.000
45.30000 51.000
45.32000 42.000
45.34000 54.000
45.36000 42.000
45.38000 46.000
45.40000 49.000
45.42000 48.000
45.44000 43.000
45.46000 59.000
45.48000 49.000
45.50000 37.000
45.52000 48.000
45.54000 37.000
45.56000 38.000
45.58000 34.000
45.60000 58.000
45.62000 46.000
45.64000 45.000
45.66000 47.000
45.68000 29.000
45.70000 46.000
45.72000 38.000
45.74000 43.000
45.76000 59.000
45.78000 38.000
45.80000 38.000
45.82000 55.000
45.84000 55.000
45.86000 61.000
45.88000 39.000
45.90000 48.000
45.92000 47.000
45.94000 50.000
45.96000 43.000
45.98000 43.000
46.00000 42.000
46.02000 41.000
46.04000 44.000
46.06000 53.000
46.08000 43.000
46.10000 50.000
46.12000 47.000
46.14000 45.000
46.16000 34.000
46.18000 39.000
46.20000 41.000
46.22000 56.000
46.24000 55.000
46.26000 43.000
46.28000 55.000
46.30000 54.000
46.32000 53.000
46.34000 47.000
46.36000 61.000
46.38000 60.000
46.40000 70.000
46.42000 63.000
46.44000 54.000
46.46000 48.000
46.48000 57.000
46.50000 48.000
46.52000 54.000
46.54000 54.000
46.56000 65.000
46.58000 50.000
46.60000 57.000
46.62000 50.000
46.64000 39.000
46.66000 51.000
46.68000 52.000
46.70000 36.000
46.72000 44.000
46.74000 39.000
46.76000 43.000
46.78000 37.000
46.80000 30.000
46.82000 34.000
46.84000 36.000
46.86000 51.000
46.88000 44.000
46.90000 43.000
46.92000 45.000
46.94000 38.000
46.96000 43.000
46.98000 43.000
47.00000 56.000
47.02000 44.000
47.04000 33.000
47.06000 52.000
47.08000 41.000
47.10000 37.000
47.12000 63.000
47.14000 54.000
47.16000 44.000
47.18000 55.000
47.20000 37.000
47.22000 49.000
47.24000 47.000
47.26000 41.000
47.28000 53.000
47.30000 48.000
47.32000 48.000
47.34000 40.000
47.36000 44.000
47.38000 53.000
47.40000 46.000
47.42000 48.000
47.44000 42.000
47.46000 56.000
47.48000 54.000
47.50000 47.000
47.52000 45.000
47.54000 47.000
47.56000 53.000
47.58000 54.000
47.60000 50.000
47.62000 48.000
47.64000 60.000
47.66000 30.000
47.68000 37.000
47.70000 46.000
47.72000 40.000
47.74000 41.000
47.76000 43.000
47.78000 38.000
47.80000 35.000
47.82000 34.000
47.84000 41.000
47.86000 29.000
47.88000 47.000
47.90000 45.000
47.92000 46.000
47.94000 54.000
47.96000 38.000
47.98000 38.000
48.00000 51.000
48.02000 45.000
48.04000 42.000
48.06000 59.000
48.08000 47.000
48.10000 49.000
48.12000 42.000
48.14000 47.000
48.16000 48.000
48.18000 41.000
48.20000 33.000
48.22000 51.000
48.24000 43.000
48.26000 54.000
48.28000 44.000
48.30000 42.000
48.32000 41.000
48.34000 40.000
48.36000 43.000
48.38000 41.000
48.40000 42.000
48.42000 55.000
48.44000 37.000
48.46000 43.000
48.48000 56.000
48.50000 53.000
48.52000 65.000
48.54000 44.000
48.56000 56.000
48.58000 45.000
48.60000 45.000
48.62000 48.000
48.64000 40.000
48.66000 51.000
48.68000 50.000
48.70000 40.000
48.72000 31.000
48.74000 37.000
48.76000 44.000
48.78000 39.000
48.80000 44.000
48.82000 42.000
48.84000 39.000
48.86000 36.000
48.88000 37.000
48.90000 21.000
48.92000 40.000
48.94000 38.000
48.96000 38.000
48.98000 29.000
49.00000 27.000
49.02000 47.000
49.04000 38.000
49.06000 39.000
49.08000 53.000
49.10000 40.000
49.12000 45.000
49.14000 44.000
49.16000 31.000
49.18000 24.000
49.20000 37.000
49.22000 49.000
49.24000 33.000
49.26000 56.000
49.28000 48.000
49.30000 50.000
49.32000 48.000
49.34000 43.000
49.36000 48.000
49.38000 49.000
49.40000 54.000
49.42000 50.000
49.44000 46.000
49.46000 61.000
49.48000 54.000
49.50000 59.000
49.52000 47.000
49.54000 72.000
49.56000 87.000
49.58000 85.000
49.60000 114.000
49.62000 126.000
49.64000 155.000
49.66000 138.000
49.68000 152.000
49.70000 157.000
49.72000 157.000
49.74000 159.000
49.76000 145.000
49.78000 145.000
49.80000 129.000
49.82000 132.000
49.84000 112.000
49.86000 109.000
49.88000 105.000
49.90000 103.000
49.92000 102.000
49.94000 72.000
49.96000 66.000
49.98000 74.000
50.00000 67.000
50.02000 72.000
50.04000 45.000
50.06000 62.000
50.08000 76.000
50.10000 50.000
50.12000 35.000
50.14000 48.000
50.16000 40.000
50.18000 47.000
50.20000 46.000
50.22000 43.000
50.24000 48.000
50.26000 49.000
50.28000 55.000
50.30000 49.000
50.32000 36.000
50.34000 48.000
50.36000 53.000
50.38000 41.000
50.40000 40.000
50.42000 38.000
50.44000 35.000
50.46000 46.000
50.48000 45.000
50.50000 32.000
50.52000 55.000
50.54000 59.000
50.56000 31.000
50.58000 50.000
50.60000 49.000
50.62000 48.000
50.64000 52.000
50.66000 53.000
50.68000 46.000
50.70000 41.000
50.72000 57.000
50.74000 42.000
50.76000 37.000
50.78000 50.000
50.80000 47.000
50.82000 43.000
50.84000 43.000
50.86000 51.000
50.88000 42.000
50.90000 35.000
50.92000 28.000
50.94000 41.000
50.96000 30.000
50.98000 47.000
51.00000 39.000
51.02000 33.000
51.04000 32.000
51.06000 40.000
51.08000 32.000
51.10000 35.000
51.12000 36.000
51.14000 41.000
51.16000 38.000
51.18000 40.000
51.20000 29.000
51.22000 33.000
51.24000 40.000
51.26000 35.000
51.28000 47.000
51.30000 36.000
51.32000 36.000
51.34000 47.000
51.36000 35.000
51.38000 35.000
51.40000 41.000
51.42000 36.000
51.44000 26.000
51.46000 34.000
51.48000 36.000
51.50000 27.000
51.52000 38.000
51.54000 25.000
51.56000 45.000
51.58000 43.000
51.60000 39.000
51.62000 43.000
51.64000 50.000
51.66000 42.000
51.68000 45.000
51.70000 63.000
51.72000 58.000
51.74000 71.000
51.76000 64.000
51.78000 90.000
51.80000 91.000
51.82000 101.000
51.84000 109.000
51.86000 111.000
51.88000 108.000
51.90000 114.000
51.92000 112.000
51.94000 109.000
51.96000 122.000
51.98000 134.000
52.00000 91.000
52.02000 81.000
52.04000 102.000
52.06000 79.000
52.08000 81.000
52.10000 75.000
52.12000 65.000
52.14000 63.000
52.16000 61.000
52.18000 54.000
52.20000 60.000
52.22000 51.000
52.24000 53.000
52.26000 48.000
52.28000 45.000
52.30000 44.000
52.32000 50.000
52.34000 39.000
52.36000 48.000
52.38000 54.000
52.40000 39.000
52.42000 39.000
52.44000 54.000
52.46000 50.000
52.48000 43.000
52.50000 42.000
52.52000 52.000
52.54000 50.000
52.56000 36.000
52.58000 53.000
52.60000 58.000
52.62000 54.000
52.64000 51.000
52.66000 37.000
52.68000 42.000
52.70000 44.000
52.72000 56.000
52.74000 45.000
52.76000 36.000
52.78000 54.000
52.80000 52.000
52.82000 49.000
52.84000 47.000
52.86000 35.000
52.88000 40.000
52.90000 43.000
52.92000 37.000
52.94000 47.000
52.96000 45.000
52.98000 39.000
53.00000 45.000
53.02000 38.000
53.04000 35.000
53.06000 36.000
53.08000 48.000
53.10000 58.000
53.12000 36.000
53.14000 43.000
53.16000 41.000
53.18000 41.000
53.20000 48.000
53.22000 63.000
53.24000 65.000
53.26000 83.000
53.28000 63.000
53.30000 61.000
53.32000 58.000
53.34000 60.000
53.36000 65.000
53.38000 59.000
53.40000 48.000
53.42000 43.000
53.44000 52.000
53.46000 44.000
53.48000 49.000
53.50000 51.000
53.52000 36.000
53.54000 55.000
53.56000 57.000
53.58000 52.000
53.60000 50.000
53.62000 40.000
53.64000 35.000
53.66000 50.000
53.68000 48.000
53.70000 44.000
53.72000 31.000
53.74000 42.000
53.76000 44.000
53.78000 38.000
53.80000 51.000
53.82000 35.000
53.84000 47.000
53.86000 39.000
53.88000 42.000
53.90000 46.000
53.92000 55.000
53.94000 65.000
53.96000 61.000
53.98000 52.000
54.00000 66.000
54.02000 68.000
54.04000 73.000
54.06000 66.000
54.08000 69.000
54.10000 57.000
54.12000 56.000
54.14000 61.000
54.16000 59.000
54.18000 71.000
54.20000 66.000
54.22000 59.000
54.24000 57.000
54.26000 61.000
54.28000 36.000
54.30000 46.000
54.32000 46.000
54.34000 46.000
54.36000 47.000
54.38000 33.000
54.40000 43.000
54.42000 38.000
54.44000 31.000
54.46000 37.000
54.48000 37.000
54.50000 54.000
54.52000 34.000
54.54000 30.000
54.56000 41.000
54.58000 36.000
54.60000 33.000
54.62000 39.000
54.64000 24.000
54.66000 37.000
54.68000 19.000
54.70000 28.000
54.72000 27.000
54.74000 30.000
54.76000 31.000
54.78000 37.000
54.80000 22.000
54.82000 25.000
54.84000 28.000
54.86000 30.000
54.88000 22.000
54.90000 31.000
54.92000 28.000
54.94000 49.000
54.96000 23.000
54.98000 28.000
55.00000 33.000
55.02000 40.000
55.04000 44.000
55.06000 25.000
55.08000 39.000
55.10000 38.000
55.12000 39.000
55.14000 21.000
55.16000 29.000
55.18000 36.000
55.20000 29.000
55.22000 34.000
55.24000 30.000
55.26000 40.000
55.28000 27.000
55.30000 30.000
55.32000 26.000
55.34000 25.000
55.36000 22.000
55.38000 22.000
55.40000 36.000
55.42000 40.000
55.44000 36.000
55.46000 39.000
55.48000 36.000
55.50000 23.000
55.52000 43.000
55.54000 32.000
55.56000 26.000
55.58000 40.000
55.60000 33.000
55.62000 36.000
55.64000 34.000
55.66000 41.000
55.68000 31.000
55.70000 34.000
55.72000 38.000
55.74000 41.000
55.76000 37.000
55.78000 46.000
55.80000 42.000
55.82000 31.000
55.84000 43.000
55.86000 43.000
55.88000 42.000
55.90000 48.000
55.92000 39.000
55.94000 45.000
55.96000 41.000
55.98000 33.000
56.00000 41.000
56.02000 40.000
56.04000 32.000
56.06000 40.000
56.08000 33.000
56.10000 30.000
56.12000 45.000
56.14000 28.000
56.16000 40.000
56.18000 34.000
56.20000 42.000
56.22000 37.000
56.24000 40.000
56.26000 47.000
56.28000 33.000
56.30000 49.000
56.32000 39.000
56.34000 41.000
56.36000 40.000
56.38000 56.000
56.40000 54.000
56.42000 63.000
56.44000 45.000
56.46000 38.000
56.48000 48.000
56.50000 42.000
56.52000 37.000
56.54000 32.000
56.56000 39.000
56.58000 39.000
56.60000 39.000
56.62000 36.000
56.64000 39.000
56.66000 39.000
56.68000 30.000
56.70000 35.000
56.72000 37.000
56.74000 32.000
56.76000 26.000
56.78000 25.000
56.80000 33.000
56.82000 34.000
56.84000 21.000
56.86000 26.000
56.88000 41.000
56.90000 41.000
56.92000 36.000
56.94000 30.000
56.96000 21.000
56.98000 41.000
57.00000 22.000
57.02000 26.000
57.04000 34.000
57.06000 46.000
57.08000 38.000
57.10000 30.000
57.12000 30.000
57.14000 27.000
57.16000 37.000
57.18000 33.000
57.20000 30.000
57.22000 23.000
57.24000 42.000
57.26000 23.000
57.28000 35.000
57.30000 25.000
57.32000 28.000
57.34000 37.000
57.36000 26.000
57.38000 24.000
57.40000 35.000
57.42000 31.000
57.44000 25.000
57.46000 36.000
57.48000 31.000
57.50000 34.000
57.52000 39.000
57.54000 24.000
57.56000 28.000
57.58000 20.000
57.60000 30.000
57.62000 31.000
57.64000 41.000
57.66000 34.000
57.68000 34.000
57.70000 33.000
57.72000 34.000
57.74000 33.000
57.76000 39.000
57.78000 36.000
57.80000 32.000
57.82000 32.000
57.84000 40.000
57.86000 35.000
57.88000 58.000
57.90000 39.000
57.92000 39.000
57.94000 46.000
57.96000 64.000
57.98000 57.000
58.00000 55.000
58.02000 58.000
58.04000 70.000
58.06000 68.000
58.08000 65.000
58.10000 60.000
58.12000 76.000
58.14000 81.000
58.16000 58.000
58.18000 73.000
58.20000 62.000
58.22000 66.000
58.24000 54.000
58.26000 60.000
58.28000 53.000
58.30000 38.000
58.32000 46.000
58.34000 39.000
58.36000 44.000
58.38000 38.000
58.40000 43.000
58.42000 49.000
58.44000 31.000
58.46000 42.000
58.48000 23.000
58.50000 52.000
58.52000 33.000
58.54000 34.000
58.56000 39.000
58.58000 28.000
58.60000 40.000
58.62000 36.000
58.64000 23.000
58.66000 42.000
58.68000 26.000
58.70000 33.000
58.72000 40.000
58.74000 29.000
58.76000 48.000
58.78000 31.000
58.80000 30.000
58.82000 29.000
58.84000 32.000
58.86000 29.000
58.88000 27.000
58.90000 20.000
58.92000 29.000
58.94000 35.000
58.96000 31.000
58.98000 33.000
59.00000 40.000
59.02000 18.000
59.04000 27.000
59.06000 28.000
59.08000 24.000
59.10000 44.000
59.12000 38.000
59.14000 27.000
59.16000 24.000
59.18000 34.000
59.20000 34.000
59.22000 45.000
59.24000 45.000
59.26000 39.000
59.28000 33.000
59.30000 27.000
59.32000 42.000
59.34000 32.000
59.36000 43.000
59.38000 38.000
59.40000 50.000
59.42000 39.000
59.44000 42.000
59.46000 35.000
59.48000 44.000
59.50000 52.000
59.52000 42.000
59.54000 33.000
59.56000 47.000
59.58000 52.000
59.60000 36.000
59.62000 52.000
59.64000 36.000
59.66000 37.000
59.68000 39.000
59.70000 41.000
59.72000 41.000
59.74000 47.000
59.76000 36.000
59.78000 46.000
59.80000 57.000
59.82000 51.000
59.84000 66.000
59.86000 63.000
59.88000 79.000
59.90000 72.000
59.92000 90.000
59.94000 105.000
59.96000 109.000
