5.00000 365.000
5.02000 404.000
5.04000 353.000
5.06000 345.000
5.08000 404.000
5.10000 394.000
5.12000 369.000
5.14000 364.000
5.16000 359.000
5.18000 363.000
5.20000 393.000
5.22000 365.000
5.24000 337.000
5.26000 382.000
5.28000 385.000
5.30000 356.000
5.32000 366.000
5.34000 348.000
5.36000 345.000
5.38000 360.000
5.40000 352.000
5.42000 361.000
5.44000 373.000
5.46000 345.000
5.48000 388.000
5.50000 361.000
5.52000 342.000
5.54000 336.000
5.56000 294.000
5.58000 332.000
5.60000 335.000
5.62000 348.000
5.64000 342.000
5.66000 316.000
5.68000 339.000
5.70000 322.000
5.72000 358.000
5.74000 325.000
5.76000 343.000
5.78000 307.000
5.80000 337.000
5.82000 278.000
5.84000 325.000
5.86000 309.000
5.88000 299.000
5.90000 288.000
5.92000 303.000
5.94000 291.000
5.96000 296.000
5.98000 329.000
6.00000 282.000
6.02000 339.000
6.04000 307.000
6.06000 320.000
6.08000 308.000
6.10000 308.000
6.12000 286.000
6.14000 292.000
6.16000 290.000
6.18000 315.000
6.20000 310.000
6.22000 279.000
6.24000 291.000
6.26000 297.000
6.28000 262.000
6.30000 262.000
6.32000 286.000
6.34000 295.000
6.36000 306.000
6.38000 292.000
6.40000 312.000
6.42000 291.000
6.44000 279.000
6.46000 283.000
6.48000 284.000
6.50000 273.000
6.52000 285.000
6.54000 271.000
6.56000 255.000
6.58000 268.000
6.60000 270.000
6.62000 292.000
6.64000 292.000
6.66000 296.000
6.68000 282.000
6.70000 274.000
6.72000 282.000
6.74000 231.000
6.76000 262.000
6.78000 280.000
6.80000 274.000
6.82000 287.000
6.84000 254.000
6.86000 252.000
6.88000 261.000
6.90000 257.000
6.92000 285.000
6.94000 270.000
6.96000 257.000
6.98000 257.000
7.00000 259.000
7.02000 279.000
7.04000 249.000
7.06000 250.000
7.08000 253.000
7.10000 270.000
7.12000 255.000
7.14000 245.000
7.16000 255.000
7.18000 249.000
7.20000 260.000
7.22000 241.000
7.24000 238.000
7.26000 245.000
7.28000 240.000
7.30000 227.000
7.32000 256.000
7.34000 254.000
7.36000 235.000
7.38000 244.000
7.40000 231.000
7.42000 253.000
7.44000 238.000
7.46000 266.000
7.48000 280.000
7.50000 247.000
7.52000 235.000
7.54000 250.000
7.56000 222.000
7.58000 261.000
7.60000 234.000
7.62000 225.000
7.64000 251.000
7.66000 260.000
7.68000 242.000
7.70000 260.000
7.72000 257.000
7.74000 266.000
7.76000 244.000
7.78000 230.000
7.80000 223.000
7.82000 231.000
7.84000 236.000
7.86000 264.000
7.88000 247.000
7.90000 227.000
7.92000 220.000
7.94000 229.000
7.96000 255.000
7.98000 237.000
8.00000 204.000
8.02000 218.000
8.04000 250.000
8.06000 209.000
8.08000 223.000
8.10000 246.000
8.12000 231.000
8.14000 239.000
8.16000 211.000
8.18000 238.000
8.20000 221.000
8.22000 244.000
8.24000 230.000
8.26000 239.000
8.28000 231.000
8.30000 242.000
8.32000 243.000
8.34000 237.000
8.36000 234.000
8.38000 229.000
8.40000 215.000
8.42000 180.000
8.44000 213.000
8.46000 206.000
8.48000 214.000
8.50000 222.000
8.52000 216.000
8.54000 218.000
8.56000 200.000
8.58000 196.000
8.60000 220.000
8.62000 207.000
8.64000 221.000
8.66000 222.000
8.68000 205.000
8.70000 211.000
8.72000 212.000
8.74000 216.000
8.76000 204.000
8.78000 209.000
8.80000 232.000
8.82000 226.000
8.84000 217.000
8.86000 200.000
8.88000 219.000
8.90000 203.000
8.92000 239.000
8.94000 216.000
8.96000 190.000
8.98000 196.000
9.00000 207.000
9.02000 223.000
9.04000 206.000
9.06000 206.000
9.08000 206.000
9.10000 221.000
9.12000 227.000
9.14000 225.000
9.16000 215.000
9.18000 196.000
9.20000 208.000
9.22000 207.000
9.24000 225.000
9.26000 206.000
9.28000 210.000
9.30000 224.000
9.32000 223.000
9.34000 214.000
9.36000 236.000
9.38000 200.000
9.40000 237.000
9.42000 236.000
9.44000 249.000
9.46000 252.000
9.48000 230.000
9.50000 234.000
9.52000 261.000
9.54000 257.000
9.56000 272.000
9.58000 272.000
9.60000 309.000
9.62000 321.000
9.64000 306.000
9.66000 333.000
9.68000 316.000
9.70000 362.000
9.72000 369.000
9.74000 336.000
9.76000 396.000
9.78000 387.000
9.80000 469.000
9.82000 441.000
9.84000 382.000
9.86000 433.000
9.88000 417.000
9.90000 372.000
9.92000 337.000
9.94000 320.000
9.96000 312.000
9.98000 287.000
10.00000 267.000
10.02000 255.000
10.04000 230.000
10.06000 224.000
10.08000 196.000
10.10000 218.000
10.12000 191.000
10.14000 200.000
10.16000 230.000
10.18000 192.000
10.20000 181.000
10.22000 188.000
10.24000 171.000
10.26000 170.000
10.28000 176.000
10.30000 177.000
10.32000 187.000
10.34000 174.000
10.36000 189.000
10.38000 168.000
10.40000 169.000
10.42000 173.000
10.44000 186.000
10.46000 171.000
10.48000 176.000
10.50000 157.000
10.52000 182.000
10.54000 162.000
10.56000 188.000
10.58000 143.000
10.60000 168.000
10.62000 204.000
10.64000 164.000
10.66000 155.000
10.68000 169.000
10.70000 155.000
10.72000 145.000
10.74000 171.000
10.76000 166.000
10.78000 167.000
10.80000 195.000
10.82000 162.000
10.84000 173.000
10.86000 150.000
10.88000 189.000
10.90000 160.000
10.92000 161.000
10.94000 159.000
10.96000 173.000
10.98000 170.000
11.00000 184.000
11.02000 174.000
11.04000 163.000
11.06000 184.000
11.08000 160.000
11.10000 178.000
11.12000 160.000
11.14000 191.000
11.16000 178.000
11.18000 139.000
11.20000 167.000
11.22000 161.000
11.24000 186.000
11.26000 149.000
11.28000 180.000
11.30000 161.000
11.32000 163.000
11.34000 177.000
11.36000 191.000
11.38000 163.000
11.40000 161.000
11.42000 154.000
11.44000 151.000
11.46000 156.000
11.48000 137.000
11.50000 151.000
11.52000 159.000
11.54000 169.000
11.56000 191.000
11.58000 167.000
11.60000 146.000
11.62000 145.000
11.64000 159.000
11.66000 152.000
11.68000 182.000
11.70000 153.000
11.72000 176.000
11.74000 177.000
11.76000 180.000
11.78000 172.000
11.80000 181.000
11.82000 167.000
11.84000 169.000
11.86000 164.000
11.88000 187.000
11.90000 186.000
11.92000 164.000
11.94000 193.000
11.96000 172.000
11.98000 175.000
12.00000 175.000
12.02000 172.000
12.04000 150.000
12.06000 147.000
12.08000 155.000
12.10000 196.000
12.12000 176.000
12.14000 186.000
12.16000 172.000
12.18000 179.000
12.20000 168.000
12.22000 226.000
12.24000 183.000
12.26000 194.000
12.28000 211.000
12.30000 213.000
12.32000 226.000
12.34000 239.000
12.36000 238.000
12.38000 252.000
12.40000 283.000
12.42000 301.000
12.44000 277.000
12.46000 373.000
12.48000 353.000
12.50000 371.000
12.52000 420.000
12.54000 469.000
12.56000 515.000
12.58000 534.000
12.60000 632.000
12.62000 587.000
12.64000 592.000
12.66000 559.000
12.68000 583.000
12.70000 544.000
12.72000 523.000
12.74000 419.000
12.76000 409.000
12.78000 393.000
12.80000 328.000
12.82000 293.000
12.84000 286.000
12.86000 232.000
12.88000 292.000
12.90000 243.000
12.92000 287.000
12.94000 258.000
12.96000 281.000
12.98000 310.000
13.00000 321.000
13.02000 296.000
13.04000 336.000
13.06000 303.000
13.08000 325.000
13.10000 323.000
13.12000 275.000
13.14000 262.000
13.16000 235.000
13.18000 231.000
13.20000 194.000
13.22000 213.000
13.24000 213.000
13.26000 181.000
13.28000 204.000
13.30000 204.000
13.32000 187.000
13.34000 222.000
13.36000 212.000
13.38000 238.000
13.40000 269.000
13.42000 247.000
13.44000 262.000
13.46000 260.000
13.48000 329.000
13.50000 318.000
13.52000 327.000
13.54000 414.000
13.56000 414.000
13.58000 442.000
13.60000 447.000
13.62000 525.000
13.64000 605.000
13.66000 622.000
13.68000 701.000
13.70000 808.000
13.72000 855.000
13.74000 975.000
13.76000 1037.000
13.78000 1218.000
13.80000 1313.000
13.82000 1604.000
13.84000 1796.000
13.86000 1983.000
13.88000 2149.000
13.90000 2437.000
13.92000 2535.000
13.94000 2654.000
13.96000 2509.000
13.98000 2164.000
14.00000 1887.000
14.02000 1474.000
14.04000 1158.000
14.06000 870.000
14.08000 689.000
14.10000 523.000
14.12000 457.000
14.14000 352.000
14.16000 324.000
14.18000 287.000
14.20000 228.000
14.22000 225.000
14.24000 203.000
14.26000 195.000
14.28000 127.000
14.30000 191.000
14.32000 139.000
14.34000 154.000
14.36000 155.000
14.38000 180.000
14.40000 144.000
14.42000 135.000
14.44000 157.000
14.46000 148.000
14.48000 137.000
14.50000 129.000
14.52000 138.000
14.54000 147.000
14.56000 120.000
14.58000 161.000
14.60000 133.000
14.62000 143.000
14.64000 128.000
14.66000 125.000
14.68000 115.000
14.70000 136.000
14.72000 141.000
14.74000 127.000
14.76000 126.000
14.78000 124.000
14.80000 146.000
14.82000 118.000
14.84000 132.000
14.86000 134.000
14.88000 142.000
14.90000 124.000
14.92000 114.000
14.94000 107.000
14.96000 129.000
14.98000 123.000
15.00000 106.000
15.02000 108.000
15.04000 106.000
15.06000 115.000
15.08000 130.000
15.10000 116.000
15.12000 101.000
15.14000 94.000
15.16000 111.000
15.18000 118.000
15.20000 120.000
15.22000 116.000
15.24000 118.000
15.26000 116.000
15.28000 130.000
15.30000 131.000
15.32000 108.000
15.34000 125.000
15.36000 122.000
15.38000 121.000
15.40000 111.000
15.42000 101.000
15.44000 118.000
15.46000 92.000
15.48000 104.000
15.50000 127.000
15.52000 122.000
15.54000 107.000
15.56000 114.000
15.58000 124.000
15.60000 123.000
15.62000 118.000
15.64000 120.000
15.66000 101.000
15.68000 115.000
15.70000 99.000
15.72000 121.000
15.74000 114.000
15.76000 97.000
15.78000 95.000
15.80000 100.000
15.82000 106.000
15.84000 110.000
15.86000 98.000
15.88000 97.000
15.90000 106.000
15.92000 118.000
15.94000 117.000
15.96000 123.000
15.98000 107.000
16.00000 97.000
16.02000 104.000
16.04000 99.000
16.06000 113.000
16.08000 135.000
16.10000 103.000
16.12000 100.000
16.14000 101.000
16.16000 100.000
16.18000 106.000
16.20000 132.000
16.22000 114.000
16.24000 112.000
16.26000 111.000
16.28000 100.000
16.30000 115.000
16.32000 125.000
16.34000 106.000
16.36000 101.000
16.38000 91.000
16.40000 132.000
16.42000 115.000
16.44000 106.000
16.46000 118.000
16.48000 105.000
16.50000 115.000
16.52000 107.000
16.54000 114.000
16.56000 131.000
16.58000 108.000
16.60000 95.000
16.62000 102.000
16.64000 107.000
16.66000 129.000
16.68000 119.000
16.70000 98.000
16.72000 122.000
16.74000 116.000
16.76000 142.000
16.78000 121.000
16.80000 118.000
16.82000 112.000
16.84000 124.000
16.86000 137.000
16.88000 153.000
16.90000 157.000
16.92000 144.000
16.94000 147.000
16.96000 159.000
16.98000 137.000
17.00000 162.000
17.02000 152.000
17.04000 126.000
17.06000 141.000
17.08000 114.000
17.10000 126.000
17.12000 114.000
17.14000 127.000
17.16000 133.000
17.18000 110.000
17.20000 127.000
17.22000 111.000
17.24000 125.000
17.26000 141.000
17.28000 106.000
17.30000 113.000
17.32000 131.000
17.34000 132.000
17.36000 114.000
17.38000 115.000
17.40000 123.000
17.42000 110.000
17.44000 141.000
17.46000 124.000
17.48000 132.000
17.50000 128.000
17.52000 113.000
17.54000 127.000
17.56000 155.000
17.58000 147.000
17.60000 147.000
17.62000 187.000
17.64000 174.000
17.66000 138.000
17.68000 185.000
17.70000 169.000
17.72000 175.000
17.74000 120.000
17.76000 143.000
17.78000 125.000
17.80000 125.000
17.82000 118.000
17.84000 115.000
17.86000 122.000
17.88000 127.000
17.90000 89.000
17.92000 105.000
17.94000 90.000
17.96000 96.000
17.98000 111.000
18.00000 95.000
18.02000 108.000
18.04000 109.000
18.06000 116.000
18.08000 99.000
18.10000 97.000
18.12000 97.000
18.14000 91.000
18.16000 101.000
18.18000 93.000
18.20000 101.000
18.22000 113.000
18.24000 88.000
18.26000 106.000
18.28000 115.000
18.30000 99.000
18.32000 93.000
18.34000 114.000
18.36000 103.000
18.38000 100.000
18.40000 103.000
18.42000 97.000
18.44000 116.000
18.46000 91.000
18.48000 109.000
18.50000 106.000
18.52000 91.000
18.54000 101.000
18.56000 102.000
18.58000 102.000
18.60000 99.000
18.62000 112.000
18.64000 117.000
18.66000 110.000
18.68000 95.000
18.70000 94.000
18.72000 96.000
18.74000 90.000
18.76000 108.000
18.78000 92.000
18.80000 93.000
18.82000 87.000
18.84000 111.000
18.86000 84.000
18.88000 95.000
18.90000 113.000
18.92000 99.000
18.94000 98.000
18.96000 102.000
18.98000 94.000
19.00000 99.000
19.02000 130.000
19.04000 94.000
19.06000 91.000
19.08000 89.000
19.10000 99.000
19.12000 97.000
19.14000 91.000
19.16000 108.000
19.18000 98.000
19.20000 109.000
19.22000 101.000
19.24000 104.000
19.26000 122.000
19.28000 138.000
19.30000 104.000
19.32000 91.000
19.34000 118.000
19.36000 126.000
19.38000 119.000
19.40000 118.000
19.42000 108.000
19.44000 115.000
19.46000 148.000
19.48000 148.000
19.50000 139.000
19.52000 147.000
19.54000 161.000
19.56000 181.000
19.58000 196.000
19.60000 214.000
19.62000 264.000
19.64000 268.000
19.66000 283.000
19.68000 300.000
19.70000 378.000
19.72000 360.000
19.74000 369.000
19.76000 370.000
19.78000 348.000
19.80000 305.000
19.82000 280.000
19.84000 241.000
19.86000 198.000
19.88000 204.000
19.90000 162.000
19.92000 147.000
19.94000 157.000
19.96000 133.000
19.98000 120.000
20.00000 108.000
20.02000 106.000
20.04000 112.000
20.06000 115.000
20.08000 103.000
20.10000 90.000
20.12000 104.000
20.14000 114.000
20.16000 102.000
20.18000 106.000
20.20000 102.000
20.22000 88.000
20.24000 114.000
20.26000 99.000
20.28000 102.000
20.30000 107.000
20.32000 84.000
20.34000 104.000
20.36000 101.000
20.38000 109.000
20.40000 90.000
20.42000 116.000
20.44000 95.000
20.46000 97.000
20.48000 85.000
20.50000 101.000
20.52000 92.000
20.54000 100.000
20.56000 88.000
20.58000 96.000
20.60000 96.000
20.62000 101.000
20.64000 120.000
20.66000 108.000
20.68000 114.000
20.70000 108.000
20.72000 105.000
20.74000 99.000
20.76000 98.000
20.78000 113.000
20.80000 106.000
20.82000 112.000
20.84000 117.000
20.86000 137.000
20.88000 141.000
20.90000 147.000
20.92000 131.000
20.94000 147.000
20.96000 158.000
20.98000 140.000
21.00000 138.000
21.02000 145.000
21.04000 115.000
21.06000 131.000
21.08000 134.000
21.10000 122.000
21.12000 119.000
21.14000 104.000
21.16000 104.000
21.18000 117.000
21.20000 105.000
21.22000 107.000
21.24000 108.000
21.26000 108.000
21.28000 98.000
21.30000 85.000
21.32000 82.000
21.34000 93.000
21.36000 117.000
21.38000 86.000
21.40000 105.000
21.42000 105.000
21.44000 123.000
21.46000 103.000
21.48000 127.000
21.50000 136.000
21.52000 105.000
21.54000 117.000
21.56000 133.000
21.58000 134.000
21.60000 114.000
21.62000 149.000
21.64000 132.000
21.66000 146.000
21.68000 152.000
21.70000 147.000
21.72000 175.000
21.74000 142.000
21.76000 135.000
21.78000 145.000
21.80000 123.000
21.82000 129.000
21.84000 132.000
21.86000 110.000
21.88000 104.000
21.90000 118.000
21.92000 118.000
21.94000 111.000
21.96000 122.000
21.98000 96.000
22.00000 99.000
22.02000 105.000
22.04000 107.000
22.06000 111.000
22.08000 92.000
22.10000 104.000
22.12000 98.000
22.14000 108.000
22.16000 90.000
22.18000 106.000
22.20000 104.000
22.22000 92.000
22.24000 118.000
22.26000 107.000
22.28000 107.000
22.30000 112.000
22.32000 110.000
22.34000 109.000
22.36000 122.000
22.38000 122.000
22.40000 117.000
22.42000 122.000
22.44000 131.000
22.46000 162.000
22.48000 156.000
22.50000 169.000
22.52000 179.000
22.54000 191.000
22.56000 240.000
22.58000 224.000
22.60000 262.000
22.62000 277.000
22.64000 281.000
22.66000 301.000
22.68000 271.000
22.70000 270.000
22.72000 261.000
22.74000 227.000
22.76000 185.000
22.78000 163.000
22.80000 176.000
22.82000 159.000
22.84000 145.000
22.86000 123.000
22.88000 132.000
22.90000 137.000
22.92000 127.000
22.94000 118.000
22.96000 109.000
22.98000 140.000
23.00000 93.000
23.02000 105.000
23.04000 97.000
23.06000 85.000
23.08000 97.000
23.10000 94.000
23.12000 93.000
23.14000 98.000
23.16000 68.000
23.18000 91.000
23.20000 94.000
23.22000 99.000
23.24000 110.000
23.26000 92.000
23.28000 95.000
23.30000 92.000
23.32000 116.000
23.34000 92.000
23.36000 84.000
23.38000 89.000
23.40000 116.000
23.42000 101.000
23.44000 80.000
23.46000 92.000
23.48000 95.000
23.50000 83.000
23.52000 80.000
23.54000 96.000
23.56000 96.000
23.58000 98.000
23.60000 106.000
23.62000 92.000
23.64000 103.000
23.66000 73.000
23.68000 92.000
23.70000 77.000
23.72000 89.000
23.74000 90.000
23.76000 103.000
23.78000 84.000
23.80000 105.000
23.82000 108.000
23.84000 109.000
23.86000 96.000
23.88000 99.000
23.90000 99.000
23.92000 106.000
23.94000 91.000
23.96000 127.000
23.98000 138.000
24.00000 121.000
24.02000 139.000
24.04000 173.000
24.06000 187.000
24.08000 203.000
24.10000 228.000
24.12000 254.000
24.14000 283.000
24.16000 343.000
24.18000 366.000
24.20000 442.000
24.22000 439.000
24.24000 408.000
24.26000 456.000
24.28000 388.000
24.30000 381.000
24.32000 361.000
24.34000 264.000
24.36000 252.000
24.38000 238.000
24.40000 181.000
24.42000 152.000
24.44000 137.000
24.46000 139.000
24.48000 121.000
24.50000 96.000
24.52000 109.000
24.54000 116.000
24.56000 87.000
24.58000 108.000
24.60000 107.000
24.62000 121.000
24.64000 91.000
24.66000 99.000
24.68000 81.000
24.70000 108.000
24.72000 92.000
24.74000 83.000
24.76000 89.000
24.78000 94.000
24.80000 105.000
24.82000 85.000
24.84000 87.000
24.86000 117.000
24.88000 87.000
24.90000 92.000
24.92000 101.000
24.94000 75.000
24.96000 94.000
24.98000 107.000
25.00000 110.000
25.02000 119.000
25.04000 113.000
25.06000 133.000
25.08000 130.000
25.10000 133.000
25.12000 175.000
25.14000 162.000
25.16000 156.000
25.18000 177.000
25.20000 153.000
25.22000 202.000
25.24000 203.000
25.26000 196.000
25.28000 197.000
25.30000 214.000
25.32000 234.000
25.34000 227.000
25.36000 255.000
25.38000 244.000
25.40000 221.000
25.42000 197.000
25.44000 196.000
25.46000 204.000
25.48000 182.000
25.50000 214.000
25.52000 189.000
25.54000 207.000
25.56000 236.000
25.58000 250.000
25.60000 294.000
25.62000 289.000
25.64000 283.000
25.66000 325.000
25.68000 355.000
25.70000 325.000
25.72000 307.000
25.74000 267.000
25.76000 269.000
25.78000 233.000
25.80000 205.000
25.82000 163.000
25.84000 145.000
25.86000 160.000
25.88000 142.000
25.90000 159.000
25.92000 125.000
25.94000 134.000
25.96000 144.000
25.98000 151.000
26.00000 132.000
26.02000 180.000
26.04000 145.000
26.06000 166.000
26.08000 157.000
26.10000 174.000
26.12000 191.000
26.14000 217.000
26.16000 225.000
26.18000 274.000
26.20000 267.000
26.22000 315.000
26.24000 330.000
26.26000 362.000
26.28000 351.000
26.30000 402.000
26.32000 410.000
26.34000 429.000
26.36000 387.000
26.38000 398.000
26.40000 379.000
26.42000 397.000
26.44000 366.000
26.46000 339.000
26.48000 370.000
26.50000 361.000
26.52000 319.000
26.54000 269.000
26.56000 234.000
26.58000 193.000
26.60000 184.000
26.62000 162.000
26.64000 161.000
26.66000 136.000
26.68000 131.000
26.70000 116.000
26.72000 125.000
26.74000 115.000
26.76000 124.000
26.78000 137.000
26.80000 116.000
26.82000 134.000
26.84000 142.000
26.86000 136.000
26.88000 151.000
26.90000 186.000
26.92000 208.000
26.94000 204.000
26.96000 207.000
26.98000 243.000
27.00000 298.000
27.02000 288.000
27.04000 347.000
27.06000 367.000
27.08000 428.000
27.10000 452.000
27.12000 446.000
27.14000 447.000
27.16000 439.000
27.18000 413.000
27.20000 394.000
27.22000 327.000
27.24000 277.000
27.26000 234.000
27.28000 211.000
27.30000 235.000
27.32000 215.000
27.34000 219.000
27.36000 231.000
27.38000 224.000
27.40000 255.000
27.42000 271.000
27.44000 209.000
27.46000 264.000
27.48000 237.000
27.50000 231.000
27.52000 216.000
27.54000 186.000
27.56000 202.000
27.58000 180.000
27.60000 172.000
27.62000 186.000
27.64000 159.000
27.66000 156.000
27.68000 139.000
27.70000 163.000
27.72000 156.000
27.74000 197.000
27.76000 181.000
27.78000 197.000
27.80000 205.000
27.82000 249.000
27.84000 330.000
27.86000 388.000
27.88000 468.000
27.90000 506.000
27.92000 612.000
27.94000 727.000
27.96000 876.000
27.98000 1129.000
28.00000 1218.000
28.02000 1463.000
28.04000 1554.000
28.06000 1782.000
28.08000 1808.000
28.10000 1749.000
28.12000 1560.000
28.14000 1418.000
28.16000 1241.000
28.18000 1047.000
28.20000 793.000
28.22000 618.000
28.24000 509.000
28.26000 369.000
28.28000 332.000
28.30000 278.000
28.32000 240.000
28.34000 224.000
28.36000 195.000
28.38000 181.000
28.40000 161.000
28.42000 151.000
28.44000 128.000
28.46000 133.000
28.48000 127.000
28.50000 129.000
28.52000 102.000
28.54000 99.000
28.56000 107.000
28.58000 105.000
28.60000 91.000
28.62000 120.000
28.64000 95.000
28.66000 100.000
28.68000 81.000
28.70000 77.000
28.72000 98.000
28.74000 112.000
28.76000 77.000
28.78000 103.000
28.80000 84.000
28.82000 91.000
28.84000 105.000
28.86000 93.000
28.88000 80.000
28.90000 81.000
28.92000 65.000
28.94000 69.000
28.96000 72.000
28.98000 87.000
29.00000 96.000
29.02000 84.000
29.04000 99.000
29.06000 82.000
29.08000 73.000
29.10000 78.000
29.12000 83.000
29.14000 80.000
29.16000 82.000
29.18000 82.000
29.20000 87.000
29.22000 77.000
29.24000 93.000
29.26000 107.000
29.28000 98.000
29.30000 88.000
29.32000 94.000
29.34000 114.000
29.36000 112.000
29.38000 106.000
29.40000 109.000
29.42000 100.000
29.44000 101.000
29.46000 89.000
29.48000 85.000
29.50000 94.000
29.52000 98.000
29.54000 85.000
29.56000 86.000
29.58000 95.000
29.60000 84.000
29.62000 92.000
29.64000 101.000
29.66000 81.000
29.68000 88.000
29.70000 94.000
29.72000 97.000
29.74000 95.000
29.76000 77.000
29.78000 85.000
29.80000 64.000
29.82000 83.000
29.84000 93.000
29.86000 79.000
29.88000 69.000
29.90000 83.000
29.92000 71.000
29.94000 75.000
29.96000 62.000
29.98000 70.000
30.00000 63.000
30.02000 77.000
30.04000 79.000
30.06000 82.000
30.08000 83.000
30.10000 67.000
30.12000 90.000
30.14000 81.000
30.16000 69.000
30.18000 79.000
30.20000 89.000
30.22000 78.000
30.24000 77.000
30.26000 85.000
30.28000 75.000
30.30000 69.000
30.32000 73.000
30.34000 84.000
30.36000 73.000
30.38000 94.000
30.40000 94.000
30.42000 79.000
30.44000 92.000
30.46000 73.000
30.48000 72.000
30.50000 88.000
30.52000 82.000
30.54000 77.000
30.56000 90.000
30.58000 78.000
30.60000 72.000
30.62000 66.000
30.64000 75.000
30.66000 76.000
30.68000 71.000
30.70000 75.000
30.72000 78.000
30.74000 70.000
30.76000 82.000
30.78000 63.000
30.80000 91.000
30.82000 77.000
30.84000 90.000
30.86000 75.000
30.88000 81.000
30.90000 72.000
30.92000 88.000
30.94000 79.000
30.96000 96.000
30.98000 101.000
31.00000 93.000
31.02000 106.000
31.04000 99.000
31.06000 142.000
31.08000 126.000
31.10000 146.000
31.12000 174.000
31.14000 159.000
31.16000 200.000
31.18000 201.000
31.20000 232.000
31.22000 306.000
31.24000 348.000
31.26000 415.000
31.28000 459.000
31.30000 580.000
31.32000 655.000
31.34000 758.000
31.36000 828.000
31.38000 894.000
31.40000 1028.000
31.42000 1109.000
31.44000 1164.000
31.46000 1263.000
31.48000 1182.000
31.50000 1177.000
31.52000 1045.000
31.54000 935.000
31.56000 751.000
31.58000 646.000
31.60000 521.000
31.62000 435.000
31.64000 351.000
31.66000 254.000
31.68000 190.000
31.70000 160.000
31.72000 168.000
31.74000 133.000
31.76000 126.000
31.78000 113.000
31.80000 107.000
31.82000 102.000
31.84000 100.000
31.86000 94.000
31.88000 77.000
31.90000 88.000
31.92000 73.000
31.94000 98.000
31.96000 76.000
31.98000 84.000
32.00000 82.000
32.02000 80.000
32.04000 93.000
32.06000 85.000
32.08000 118.000
32.10000 99.000
32.12000 100.000
32.14000 99.000
32.16000 84.000
32.18000 95.000
32.20000 90.000
32.22000 81.000
32.24000 85.000
32.26000 88.000
32.28000 87.000
32.30000 76.000
32.32000 81.000
32.34000 93.000
32.36000 86.000
32.38000 71.000
32.40000 91.000
32.42000 86.000
32.44000 87.000
32.46000 90.000
32.48000 97.000
32.50000 110.000
32.52000 106.000
32.54000 94.000
32.56000 110.000
32.58000 106.000
32.60000 128.000
32.62000 119.000
32.64000 111.000
32.66000 106.000
32.68000 99.000
32.70000 113.000
32.72000 82.000
32.74000 88.000
32.76000 78.000
32.78000 65.000
32.80000 56.000
32.82000 85.000
32.84000 67.000
32.86000 74.000
32.88000 64.000
32.90000 74.000
32.92000 51.000
32.94000 55.000
32.96000 60.000
32.98000 67.000
33.00000 49.000
33.02000 49.000
33.04000 65.000
33.06000 76.000
33.08000 72.000
33.10000 72.000
33.12000 66.000
33.14000 72.000
33.16000 84.000
33.18000 82.000
33.20000 100.000
33.22000 100.000
33.24000 94.000
33.26000 96.000
33.28000 115.000
33.30000 112.000
33.32000 122.000
33.34000 112.000
33.36000 94.000
33.38000 101.000
33.40000 96.000
33.42000 89.000
33.44000 88.000
33.46000 70.000
33.48000 64.000
33.50000 79.000
33.52000 58.000
33.54000 59.000
33.56000 44.000
33.58000 67.000
33.60000 46.000
33.62000 57.000
33.64000 59.000
33.66000 70.000
33.68000 56.000
33.70000 50.000
33.72000 68.000
33.74000 73.000
33.76000 67.000
33.78000 51.000
33.80000 53.000
33.82000 55.000
33.84000 53.000
33.86000 59.000
33.88000 61.000
33.90000 49.000
33.92000 49.000
33.94000 55.000
33.96000 62.000
33.98000 53.000
34.00000 65.000
34.02000 53.000
34.04000 62.000
34.06000 55.000
34.08000 70.000
34.10000 53.000
34.12000 63.000
34.14000 58.000
34.16000 65.000
34.18000 78.000
34.20000 63.000
34.22000 61.000
34.24000 66.000
34.26000 79.000
34.28000 83.000
34.30000 73.000
34.32000 83.000
34.34000 75.000
34.36000 75.000
34.38000 69.000
34.40000 99.000
34.42000 107.000
34.44000 107.000
34.46000 124.000
34.48000 129.000
34.50000 173.000
34.52000 155.000
34.54000 158.000
34.56000 164.000
34.58000 170.000
34.60000 148.000
34.62000 158.000
34.64000 135.000
34.66000 109.000
34.68000 136.000
34.70000 109.000
34.72000 117.000
34.74000 76.000
34.76000 74.000
34.78000 64.000
34.80000 58.000
34.82000 70.000
34.84000 74.000
34.86000 51.000
34.88000 48.000
34.90000 49.000
34.92000 58.000
34.94000 68.000
34.96000 71.000
34.98000 72.000
35.00000 55.000
35.02000 65.000
35.04000 58.000
35.06000 67.000
35.08000 59.000
35.10000 70.000
35.12000 67.000
35.14000 64.000
35.16000 72.000
35.18000 56.000
35.20000 63.000
35.22000 68.000
35.24000 74.000
35.26000 79.000
35.28000 74.000
35.30000 57.000
35.32000 70.000
35.34000 55.000
35.36000 74.000
35.38000 43.000
35.40000 65.000
35.42000 68.000
35.44000 35.000
35.46000 37.000
35.48000 59.000
35.50000 48.000
35.52000 48.000
35.54000 53.000
35.56000 59.000
35.58000 55.000
35.60000 67.000
35.62000 68.000
35.64000 77.000
35.66000 66.000
35.68000 69.000
35.70000 82.000
35.72000 75.000
35.74000 80.000
35.76000 83.000
35.78000 78.000
35.80000 89.000
35.82000 68.000
35.84000 79.000
35.86000 84.000
35.88000 79.000
35.90000 65.000
35.92000 70.000
35.94000 73.000
35.96000 81.000
35.98000 78.000
36.00000 95.000
36.02000 95.000
36.04000 100.000
36.06000 96.000
36.08000 94.000
36.10000 83.000
36.12000 73.000
36.14000 75.000
36.16000 74.000
36.18000 50.000
36.20000 72.000
36.22000 57.000
36.24000 63.000
36.26000 78.000
36.28000 54.000
36.30000 73.000
36.32000 60.000
36.34000 56.000
36.36000 63.000
36.38000 54.000
36.40000 53.000
36.42000 49.000
36.44000 74.000
36.46000 57.000
36.48000 63.000
36.50000 67.000
36.52000 63.000
36.54000 71.000
36.56000 63.000
36.58000 84.000
36.60000 61.000
36.62000 88.000
36.64000 74.000
36.66000 89.000
36.68000 69.000
36.70000 76.000
36.72000 79.000
36.74000 72.000
36.76000 65.000
36.78000 57.000
36.80000 65.000
36.82000 62.000
36.84000 61.000
36.86000 47.000
36.88000 53.000
36.90000 39.000
36.92000 47.000
36.94000 63.000
36.96000 56.000
36.98000 43.000
37.00000 55.000
37.02000 44.000
37.04000 67.000
37.06000 48.000
37.08000 63.000
37.10000 40.000
37.12000 47.000
37.14000 64.000
37.16000 54.000
37.18000 52.000
37.20000 46.000
37.22000 59.000
37.24000 65.000
37.26000 69.000
37.28000 59.000
37.30000 75.000
37.32000 83.000
37.34000 91.000
37.36000 99.000
37.38000 116.000
37.40000 133.000
37.42000 146.000
37.44000 153.000
37.46000 167.000
37.48000 164.000
37.50000 204.000
37.52000 186.000
37.54000 151.000
37.56000 200.000
37.58000 186.000
37.60000 198.000
37.62000 162.000
37.64000 180.000
37.66000 199.000
37.68000 173.000
37.70000 177.000
37.72000 180.000
37.74000 180.000
37.76000 127.000
37.78000 147.000
37.80000 130.000
37.82000 131.000
37.84000 120.000
37.86000 105.000
37.88000 91.000
37.90000 81.000
37.92000 68.000
37.94000 67.000
37.96000 68.000
37.98000 71.000
38.00000 38.000
38.02000 50.000
38.04000 51.000
38.06000 52.000
38.08000 43.000
38.10000 50.000
38.12000 63.000
38.14000 50.000
38.16000 58.000
38.18000 77.000
38.20000 55.000
38.22000 47.000
38.24000 57.000
38.26000 56.000
38.28000 64.000
38.30000 69.000
38.32000 76.000
38.34000 47.000
38.36000 65.000
38.38000 61.000
38.40000 65.000
38.42000 56.000
38.44000 66.000
38.46000 67.000
38.48000 58.000
38.50000 66.000
38.52000 62.000
38.54000 67.000
38.56000 79.000
38.58000 62.000
38.60000 55.000
38.62000 62.000
38.64000 57.000
38.66000 75.000
38.68000 60.000
38.70000 66.000
38.72000 57.000
38.74000 63.000
38.76000 61.000
38.78000 72.000
38.80000 46.000
38.82000 68.000
38.84000 65.000
38.86000 55.000
38.88000 56.000
38.90000 65.000
38.92000 63.000
38.94000 64.000
38.96000 53.000
38.98000 59.000
39.00000 53.000
39.02000 63.000
39.04000 50.000
39.06000 54.000
39.08000 57.000
39.10000 69.000
39.12000 61.000
39.14000 87.000
39.16000 77.000
39.18000 59.000
39.20000 74.000
39.22000 66.000
39.24000 73.000
39.26000 84.000
39.28000 85.000
39.30000 72.000
39.32000 86.000
39.34000 83.000
39.36000 78.000
39.38000 91.000
39.40000 93.000
39.42000 103.000
39.44000 113.000
39.46000 104.000
39.48000 110.000
39.50000 111.000
39.52000 113.000
39.54000 102.000
39.56000 107.000
39.58000 97.000
39.60000 116.000
39.62000 89.000
39.64000 93.000
39.66000 93.000
39.68000 86.000
39.70000 84.000
39.72000 86.000
39.74000 87.000
39.76000 81.000
39.78000 94.000
39.80000 110.000
39.82000 112.000
39.84000 99.000
39.86000 103.000
39.88000 134.000
39.90000 150.000
39.92000 174.000
39.94000 183.000
39.96000 222.000
39.98000 295.000
40.00000 317.000
40.02000 401.000
40.04000 452.000
40.06000 516.000
40.08000 602.000
40.10000 623.000
40.12000 638.000
40.14000 572.000
40.16000 566.000
40.18000 487.000
40.20000 460.000
40.22000 417.000
40.24000 394.000
40.26000 323.000
40.28000 273.000
40.30000 219.000
40.32000 173.000
40.34000 154.000
40.36000 109.000
40.38000 129.000
40.40000 131.000
40.42000 102.000
40.44000 100.000
40.46000 120.000
40.48000 121.000
40.50000 124.000
40.52000 134.000
40.54000 113.000
40.56000 116.000
40.58000 111.000
40.60000 106.000
40.62000 97.000
40.64000 106.000
40.66000 73.000
40.68000 93.000
40.70000 72.000
40.72000 94.000
40.74000 86.000
40.76000 69.000
40.78000 72.000
40.80000 85.000
40.82000 60.000
40.84000 81.000
40.86000 76.000
40.88000 72.000
40.90000 74.000
40.92000 70.000
40.94000 84.000
40.96000 74.000
40.98000 93.000
41.00000 99.000
41.02000 88.000
41.04000 124.000
41.06000 120.000
41.08000 125.000
41.10000 147.000
41.12000 97.000
41.14000 132.000
41.16000 117.000
41.18000 135.000
41.20000 95.000
41.22000 108.000
41.24000 116.000
41.26000 90.000
41.28000 88.000
41.30000 90.000
41.32000 72.000
41.34000 77.000
41.36000 63.000
41.38000 81.000
41.40000 60.000
41.42000 72.000
41.44000 76.000
41.46000 61.000
41.48000 62.000
41.50000 62.000
41.52000 72.000
41.54000 76.000
41.56000 69.000
41.58000 60.000
41.60000 71.000
41.62000 78.000
41.64000 58.000
41.66000 55.000
41.68000 72.000
41.70000 66.000
41.72000 60.000
41.74000 65.000
41.76000 63.000
41.78000 65.000
41.80000 53.000
41.82000 69.000
41.84000 63.000
41.86000 56.000
41.88000 80.000
41.90000 58.000
41.92000 55.000
41.94000 63.000
41.96000 59.000
41.98000 65.000
42.00000 75.000
42.02000 73.000
42.04000 60.000
42.06000 77.000
42.08000 75.000
42.10000 86.000
42.12000 92.000
42.14000 100.000
42.16000 95.000
42.18000 92.000
42.20000 109.000
42.22000 79.000
42.24000 88.000
42.26000 95.000
42.28000 78.000
42.30000 75.000
42.32000 78.000
42.34000 91.000
42.36000 78.000
42.38000 83.000
42.40000 83.000
42.42000 88.000
42.44000 104.000
42.46000 130.000
42.48000 122.000
42.50000 153.000
42.52000 173.000
42.54000 193.000
42.56000 226.000
42.58000 284.000
42.60000 346.000
42.62000 391.000
42.64000 411.000
42.66000 392.000
42.68000 421.000
42.70000 371.000
42.72000 353.000
42.74000 322.000
42.76000 271.000
42.78000 271.000
42.80000 244.000
42.82000 225.000
42.84000 175.000
42.86000 151.000
42.88000 139.000
42.90000 117.000
42.92000 100.000
42.94000 88.000
42.96000 87.000
42.98000 72.000
43.00000 63.000
43.02000 58.000
43.04000 61.000
43.06000 58.000
43.08000 76.000
43.10000 67.000
43.12000 45.000
43.14000 77.000
43.16000 35.000
43.18000 50.000
43.20000 41.000
43.22000 55.000
43.24000 34.000
43.26000 51.000
43.28000 47.000
43.30000 44.000
43.32000 44.000
43.34000 45.000
43.36000 51.000
43.38000 46.000
43.40000 41.000
43.42000 56.000
43.44000 54.000
43.46000 53.000
43.48000 48.000
43.50000 54.000
43.52000 44.000
43.54000 50.000
43.56000 45.000
43.58000 47.000
43.60000 60.000
43.62000 45.000
43.64000 46.000
43.66000 54.000
43.68000 44.000
43.70000 53.000
43.72000 42.000
43.74000 62.000
43.76000 45.000
43.78000 43.000
43.80000 54.000
43.82000 50.000
43.84000 54.000
43.86000 49.000
43.88000 56.000
43.90000 49.000
43.92000 53.000
43.94000 67.000
43.96000 56.000
43.98000 65.000
44.00000 54.000
44.02000 63.000
44.04000 64.000
44.06000 60.000
44.08000 55.000
44.10000 65.000
44.12000 60.000
44.14000 64.000
44.16000 52.000
44.18000 83.000
44.20000 64.000
44.22000 79.000
44.24000 92.000
44.26000 87.000
44.28000 71.000
44.30000 79.000
44.32000 70.000
44.34000 68.000
44.36000 84.000
44.38000 91.000
44.40000 88.000
44.42000 97.000
44.44000 96.000
44.46000 68.000
44.48000 82.000
44.50000 75.000
44.52000 71.000
44.54000 79.000
44.56000 61.000
44.58000 70.000
44.60000 72.000
44.62000 67.000
44.64000 58.000
44.66000 44.000
44.68000 50.000
44.70000 42.000
44.72000 50.000
44.74000 50.000
44.76000 33.000
44.78000 43.000
44.80000 39.000
44.82000 41.000
44.84000 45.000
44.86000 41.000
44.88000 54.000
44.90000 42.000
44.92000 43.000
44.94000 41.000
44.96000 42.000
44.98000 44.000
45.00000 50.000
45.02000 55.000
45.04000 42.000
45.06000 45.000
45.08000 55.000
45.10000 58.000
45.12000 56.000
45.14000 49.000
45.16000 64.000
45.18000 45.000
45.20000 52.000
45.22000 56.000
45.24000 51.000
45.26000 53.000
45.28000 43.000
45.30000 43.000
45.32000 40.000
45.34000 48.000
45.36000 53.000
45.38000 47.000
45.40000 44.000
45.42000 34.000
45.44000 44.000
45.46000 47.000
45.48000 48.000
45.50000 24.000
45.52000 33.000
45.54000 44.000
45.56000 27.000
45.58000 35.000
45.60000 46.000
45.62000 37.000
45.64000 43.000
45.66000 53.000
45.68000 40.000
45.70000 55.000
45.72000 39.000
45.74000 47.000
45.76000 49.000
45.78000 46.000
45.80000 44.000
45.82000 39.000
45.84000 43.000
45.86000 42.000
45.88000 60.000
45.90000 61.000
45.92000 47.000
45.94000 35.000
45.96000 36.000
45.98000 48.000
46.00000 44.000
46.02000 34.000
46.04000 53.000
46.06000 38.000
46.08000 37.000
46.10000 42.000
46.12000 48.000
46.14000 39.000
46.16000 63.000
46.18000 38.000
46.20000 49.000
46.22000 52.000
46.24000 49.000
46.26000 65.000
46.28000 60.000
46.30000 61.000
46.32000 71.000
46.34000 54.000
46.36000 58.000
46.38000 59.000
46.40000 69.000
46.42000 74.000
46.44000 85.000
46.46000 73.000
46.48000 65.000
46.50000 72.000
46.52000 66.000
46.54000 56.000
46.56000 51.000
46.58000 62.000
46.60000 57.000
46.62000 49.000
46.64000 41.000
46.66000 39.000
46.68000 39.000
46.70000 48.000
46.72000 40.000
46.74000 36.000
46.76000 50.000
46.78000 31.000
46.80000 40.000
46.82000 42.000
46.84000 41.000
46.86000 37.000
46.88000 51.000
46.90000 45.000
46.92000 40.000
46.94000 44.000
46.96000 50.000
46.98000 46.000
47.00000 48.000
47.02000 50.000
47.04000 57.000
47.06000 44.000
47.08000 48.000
47.10000 60.000
47.12000 60.000
47.14000 47.000
47.16000 48.000
47.18000 34.000
47.20000 47.000
47.22000 55.000
47.24000 42.000
47.26000 47.000
47.28000 66.000
47.30000 51.000
47.32000 57.000
47.34000 52.000
47.36000 59.000
47.38000 41.000
47.40000 56.000
47.42000 69.000
47.44000 53.000
47.46000 54.000
47.48000 51.000
47.50000 35.000
47.52000 61.000
47.54000 63.000
47.56000 44.000
47.58000 37.000
47.60000 44.000
47.62000 55.000
47.64000 45.000
47.66000 32.000
47.68000 40.000
47.70000 46.000
47.72000 42.000
47.74000 38.000
47.76000 33.000
47.78000 53.000
47.80000 52.000
47.82000 45.000
47.84000 33.000
47.86000 43.000
47.88000 44.000
47.90000 45.000
47.92000 45.000
47.94000 48.000
47.96000 44.000
47.98000 55.000
48.00000 53.000
48.02000 41.000
48.04000 47.000
48.06000 47.000
48.08000 49.000
48.10000 46.000
48.12000 53.000
48.14000 62.000
48.16000 48.000
48.18000 46.000
48.20000 51.000
48.22000 52.000
48.24000 38.000
48.26000 43.000
48.28000 42.000
48.30000 41.000
48.32000 45.000
48.34000 43.000
48.36000 57.000
48.38000 55.000
48.40000 41.000
48.42000 48.000
48.44000 52.000
48.46000 52.000
48.48000 70.000
48.50000 60.000
48.52000 56.000
48.54000 51.000
48.56000 50.000
48.58000 61.000
48.60000 55.000
48.62000 49.000
48.64000 52.000
48.66000 45.000
48.68000 40.000
48.70000 64.000
48.72000 50.000
48.74000 32.000
48.76000 35.000
48.78000 45.000
48.80000 40.000
48.82000 38.000
48.84000 36.000
48.86000 39.000
48.88000 43.000
48.90000 31.000
48.92000 30.000
48.94000 39.000
48.96000 37.000
48.98000 45.000
49.00000 32.000
49.02000 36.000
49.04000 36.000
49.06000 34.000
49.08000 48.000
49.10000 53.000
49.12000 39.000
49.14000 48.000
49.16000 52.000
49.18000 42.000
49.20000 32.000
49.22000 42.000
49.24000 37.000
49.26000 32.000
49.28000 55.000
49.30000 42.000
49.32000 51.000
49.34000 40.000
49.36000 47.000
49.38000 61.000
49.40000 47.000
49.42000 66.000
49.44000 63.000
49.46000 56.000
49.48000 63.000
49.50000 66.000
49.52000 90.000
49.54000 88.000
49.56000 101.000
49.58000 118.000
49.60000 140.000
49.62000 143.000
49.64000 137.000
49.66000 162.000
49.68000 167.000
49.70000 140.000
49.72000 145.000
49.74000 159.000
49.76000 113.000
49.78000 114.000
49.80000 95.000
49.82000 115.000
49.84000 77.000
49.86000 84.000
49.88000 86.000
49.90000 79.000
49.92000 77.000
49.94000 51.000
49.96000 53.000
49.98000 68.000
50.00000 51.000
50.02000 63.000
50.04000 48.000
50.06000 43.000
50.08000 55.000
50.10000 46.000
50.12000 59.000
50.14000 39.000
50.16000 53.000
50.18000 44.000
50.20000 35.000
50.22000 46.000
50.24000 40.000
50.26000 45.000
50.28000 51.000
50.30000 43.000
50.32000 40.000
50.34000 44.000
50.36000 42.000
50.38000 37.000
50.40000 50.000
50.42000 40.000
50.44000 37.000
50.46000 36.000
50.48000 32.000
50.50000 52.000
50.52000 42.000
50.54000 43.000
50.56000 49.000
50.58000 57.000
50.60000 49.000
50.62000 46.000
50.64000 48.000
50.66000 45.000
50.68000 56.000
50.70000 49.000
50.72000 47.000
50.74000 55.000
50.76000 46.000
50.78000 39.000
50.80000 51.000
50.82000 38.000
50.84000 41.000
50.86000 41.000
50.88000 28.000
50.90000 55.000
50.92000 31.000
50.94000 40.000
50.96000 33.000
50.98000 29.000
51.00000 35.000
51.02000 34.000
51.04000 40.000
51.06000 44.000
51.08000 36.000
51.10000 35.000
51.12000 32.000
51.14000 55.000
51.16000 42.000
51.18000 37.000
51.20000 37.000
51.22000 37.000
51.24000 33.000
51.26000 24.000
51.28000 37.000
51.30000 36.000
51.32000 34.000
51.34000 42.000
51.36000 33.000
51.38000 38.000
51.40000 32.000
51.42000 36.000
51.44000 44.000
51.46000 26.000
51.48000 30.000
51.50000 39.000
51.52000 46.000
51.54000 42.000
51.56000 48.000
51.58000 42.000
51.60000 46.000
51.62000 60.000
51.64000 48.000
51.66000 56.000
51.68000 61.000
51.70000 72.000
51.72000 66.000
51.74000 96.000
51.76000 106.000
51.78000 117.000
51.80000 136.000
51.82000 111.000
51.84000 123.000
51.86000 145.000
51.88000 117.000
51.90000 120.000
51.92000 103.000
51.94000 119.000
51.96000 106.000
51.98000 104.000
52.00000 90.000
52.02000 93.000
52.04000 85.000
52.06000 67.000
52.08000 62.000
52.10000 70.000
52.12000 71.000
52.14000 58.000
52.16000 50.000
52.18000 48.000
52.20000 45.000
52.22000 40.000
52.24000 51.000
52.26000 43.000
52.28000 52.000
52.30000 45.000
52.32000 48.000
52.34000 48.000
52.36000 51.000
52.38000 51.000
52.40000 56.000
52.42000 45.000
52.44000 38.000
52.46000 56.000
52.48000 49.000
52.50000 30.000
52.52000 40.000
52.54000 42.000
52.56000 39.000
52.58000 46.000
52.60000 37.000
52.62000 40.000
52.64000 51.000
52.66000 55.000
52.68000 45.000
52.70000 43.000
52.72000 55.000
52.74000 45.000
52.76000 47.000
52.78000 49.000
52.80000 43.000
52.82000 45.000
52.84000 43.000
52.86000 57.000
52.88000 51.000
52.90000 46.000
52.92000 52.000
52.94000 43.000
52.96000 33.000
52.98000 39.000
53.00000 42.000
53.02000 37.000
53.04000 44.000
53.06000 47.000
53.08000 40.000
53.10000 46.000
53.12000 64.000
53.14000 55.000
53.16000 75.000
53.18000 59.000
53.20000 59.000
53.22000 54.000
53.24000 81.000
53.26000 74.000
53.28000 49.000
53.30000 73.000
53.32000 69.000
53.34000 70.000
53.36000 63.000
53.38000 64.000
53.40000 60.000
53.42000 63.000
53.44000 67.000
53.46000 55.000
53.48000 50.000
53.50000 55.000
53.52000 78.000
53.54000 52.000
53.56000 53.000
53.58000 40.000
53.60000 41.000
53.62000 52.000
53.64000 46.000
53.66000 41.000
53.68000 42.000
53.70000 43.000
53.72000 44.000
53.74000 47.000
53.76000 39.000
53.78000 39.000
53.80000 41.000
53.82000 60.000
53.84000 48.000
53.86000 46.000
53.88000 57.000
53.90000 76.000
53.92000 67.000
53.94000 57.000
53.96000 64.000
53.98000 44.000
54.00000 67.000
54.02000 47.000
54.04000 87.000
54.06000 73.000
54.08000 72.000
54.10000 63.000
54.12000 60.000
54.14000 71.000
54.16000 59.000
54.18000 43.000
54.20000 63.000
54.22000 59.000
54.24000 45.000
54.26000 47.000
54.28000 50.000
54.30000 43.000
54.32000 42.000
54.34000 42.000
54.36000 46.000
54.38000 37.000
54.40000 31.000
54.42000 34.000
54.44000 40.000
54.46000 29.000
54.48000 35.000
54.50000 34.000
54.52000 31.000
54.54000 33.000
54.56000 20.000
54.58000 28.000
54.60000 34.000
54.62000 26.000
54.64000 26.000
54.66000 32.000
54.68000 25.000
54.70000 32.000
54.72000 29.000
54.74000 25.000
54.76000 32.000
54.78000 27.000
54.80000 31.000
54.82000 31.000
54.84000 22.000
54.86000 29.000
54.88000 26.000
54.90000 33.000
54.92000 35.000
54.94000 22.000
54.96000 33.000
54.98000 22.000
55.00000 24.000
55.02000 33.000
55.04000 19.000
55.06000 25.000
55.08000 27.000
55.10000 26.000
55.12000 27.000
55.14000 34.000
55.16000 41.000
55.18000 28.000
55.20000 22.000
55.22000 32.000
55.24000 35.000
55.26000 29.000
55.28000 27.000
55.30000 25.000
55.32000 20.000
55.34000 36.000
55.36000 33.000
55.38000 26.000
55.40000 36.000
55.42000 36.000
55.44000 28.000
55.46000 40.000
55.48000 40.000
55.50000 31.000
55.52000 39.000
55.54000 37.000
55.56000 41.000
55.58000 31.000
55.60000 36.000
55.62000 34.000
55.64000 38.000
55.66000 34.000
55.68000 49.000
55.70000 33.000
55.72000 31.000
55.74000 47.000
55.76000 45.000
55.78000 57.000
55.80000 41.000
55.82000 46.000
55.84000 41.000
55.86000 42.000
55.88000 37.000
55.90000 42.000
55.92000 38.000
55.94000 46.000
55.96000 33.000
55.98000 32.000
56.00000 36.000
56.02000 32.000
56.04000 42.000
56.06000 32.000
56.08000 48.000
56.10000 30.000
56.12000 32.000
56.14000 44.000
56.16000 33.000
56.18000 39.000
56.20000 41.000
56.22000 43.000
56.24000 43.000
56.26000 32.000
56.28000 40.000
56.30000 46.000
56.32000 45.000
56.34000 40.000
56.36000 44.000
56.38000 39.000
56.40000 42.000
56.42000 49.000
56.44000 40.000
56.46000 41.000
56.48000 52.000
56.50000 49.000
56.52000 46.000
56.54000 34.000
56.56000 47.000
56.58000 43.000
56.60000 39.000
56.62000 29.000
56.64000 32.000
56.66000 38.000
56.68000 34.000
56.70000 33.000
56.72000 35.000
56.74000 29.000
56.76000 39.000
56.78000 28.000
56.80000 26.000
56.82000 39.000
56.84000 36.000
56.86000 26.000
56.88000 30.000
56.90000 27.000
56.92000 40.000
56.94000 32.000
56.96000 37.000
56.98000 45.000
57.00000 31.000
57.02000 24.000
57.04000 37.000
57.06000 34.000
57.08000 40.000
57.10000 27.000
57.12000 35.000
57.14000 40.000
57.16000 37.000
57.18000 32.000
57.20000 34.000
57.22000 26.000
57.24000 26.000
57.26000 34.000
57.28000 29.000
57.30000 28.000
57.32000 28.000
57.34000 27.000
57.36000 35.000
57.38000 33.000
57.40000 30.000
57.42000 21.000
57.44000 29.000
57.46000 37.000
57.48000 29.000
57.50000 39.000
57.52000 40.000
57.54000 39.000
57.56000 32.000
57.58000 33.000
57.60000 37.000
57.62000 32.000
57.64000 34.000
57.66000 32.000
57.68000 42.000
57.70000 33.000
57.72000 34.000
57.74000 31.000
57.76000 33.000
57.78000 38.000
57.80000 40.000
57.82000 50.000
57.84000 35.000
57.86000 59.000
57.88000 52.000
57.90000 48.000
57.92000 48.000
57.94000 66.000
57.96000 48.000
57.98000 56.000
58.00000 83.000
58.02000 87.000
58.04000 83.000
58.06000 86.000
58.08000 81.000
58.10000 66.000
58.12000 72.000
58.14000 52.000
58.16000 52.000
58.18000 73.000
58.20000 52.000
58.22000 66.000
58.24000 52.000
58.26000 50.000
58.28000 42.000
58.30000 36.000
58.32000 48.000
58.34000 36.000
58.36000 43.000
58.38000 39.000
58.40000 40.000
58.42000 38.000
58.44000 39.000
58.46000 33.000
58.48000 40.000
58.50000 43.000
58.52000 56.000
58.54000 40.000
58.56000 35.000
58.58000 30.000
58.60000 31.000
58.62000 30.000
58.64000 32.000
58.66000 31.000
58.68000 37.000
58.70000 25.000
58.72000 39.000
58.74000 21.000
58.76000 35.000
58.78000 43.000
58.80000 33.000
58.82000 26.000
58.84000 29.000
58.86000 24.000
58.88000 32.000
58.90000 27.000
58.92000 36.000
58.94000 29.000
58.96000 26.000
58.98000 33.000
59.00000 30.000
59.02000 28.000
59.04000 35.000
59.06000 36.000
59.08000 38.000
59.10000 31.000
59.12000 49.000
59.14000 41.000
59.16000 28.000
59.18000 33.000
59.20000 37.000
59.22000 37.000
59.24000 55.000
59.26000 46.000
59.28000 34.000
59.30000 43.000
59.32000 37.000
59.34000 22.000
59.36000 24.000
59.38000 40.000
59.40000 41.000
59.42000 46.000
59.44000 37.000
59.46000 38.000
59.48000 50.000
59.50000 59.000
59.52000 52.000
59.54000 37.000
59.56000 51.000
59.58000 46.000
59.60000 48.000
59.62000 48.000
59.64000 41.000
59.66000 42.000
59.68000 51.000
59.70000 38.000
59.72000 54.000
59.74000 60.000
59.76000 61.000
59.78000 59.000
59.80000 56.000
59.82000 71.000
59.84000 67.000
59.86000 75.000
59.88000 89.000
59.90000 106.000
59.92000 121.000
59.94000 137.000
59.96000 146.000
